# Wavelength (micrometer), Flux (W / m2 / m)
1.000553076518779783e-01 1.970756601434740906e+11
1.004555288824854897e-01 2.195133741391247266e+13
1.008573509980154326e-01 2.278257077201065625e+13
1.012607804020075053e-01 2.363981983190588281e+13
1.016658235236155422e-01 2.452387779659863281e+13
1.020724868177099870e-01 2.543514240397387109e+13
1.024807767649808382e-01 2.634098286934212109e+13
1.028906998720407612e-01 2.733962043865291016e+13
1.033022626715289355e-01 2.833957227478258984e+13
1.037154717222150413e-01 2.899980285742162109e+13
1.041303336091038839e-01 3.042368629047071875e+13
1.045468549435403099e-01 3.151156896884223828e+13
1.049650423633144702e-01 3.263202545898512891e+13
1.053849025327677214e-01 3.377999493378974609e+13
1.058064421428987906e-01 3.496977081505657812e+13
1.062296679114703990e-01 3.614149451053274219e+13
1.066545865831162732e-01 3.740168146763269531e+13
1.070812049294487533e-01 3.872265299014384375e+13
1.075095297491665408e-01 4.000898786230482031e+13
1.079395678681632220e-01 4.141942534165950781e+13
1.083713261396358624e-01 4.279676788330028125e+13
1.088048114441943909e-01 4.423166121224878125e+13
1.092400306899711654e-01 4.571730171437098438e+13
1.096769908127310511e-01 4.714386435529523438e+13
1.101156987759819850e-01 4.876284924836646875e+13
1.105561615710859147e-01 5.038369758542403906e+13
1.109983862173702651e-01 5.201318554951762500e+13
1.114423797622397516e-01 5.369646312586232031e+13
1.118881492812886930e-01 5.542150482836083594e+13
1.123357018784138517e-01 5.711968868373839844e+13
1.127850446859275102e-01 5.889342702904342188e+13
1.132361848646712132e-01 6.080205537825879688e+13
1.136891296041298988e-01 6.272974728008300000e+13
1.141438861225464035e-01 6.465601483291491406e+13
1.146004616670366072e-01 6.643859479871327344e+13
1.150588635137047705e-01 6.860842033728732031e+13
1.155190989677595953e-01 7.076977143175059375e+13
1.159811753636306314e-01 7.294531687284593750e+13
1.164451000650851553e-01 7.513300966311079688e+13
1.169108804653455069e-01 7.735495534894165625e+13
1.173785239872068981e-01 7.965272748093373438e+13
1.178480380831557206e-01 8.199318842171546875e+13
1.183194302354883543e-01 8.437995896190542188e+13
1.187927079564302935e-01 8.682404186952704688e+13
1.192678787882560099e-01 8.931737436404860938e+13
1.197449503034090645e-01 9.187457314266021875e+13
1.202239301046226783e-01 9.448069848005321875e+13
1.207048258250411760e-01 9.714225307266534375e+13
1.211876451283413342e-01 9.985538286680365625e+13
1.216723957088547137e-01 1.023320960960195312e+14
1.221590852916901310e-01 1.054632200491261250e+14
1.226477216328568792e-01 1.083505776597431562e+14
1.231383125193883099e-01 1.112981507344790781e+14
1.236308657694658586e-01 1.143022766852907344e+14
1.241253892325437369e-01 1.173652277758578906e+14
1.246218907894739159e-01 1.204930592839065781e+14
1.251203783526317892e-01 1.236779853066454688e+14
1.256208598660423226e-01 1.269238982486353906e+14
1.261233433055065078e-01 1.301805056938086562e+14
1.266278366787285392e-01 1.335358331461216094e+14
1.271343480254434610e-01 1.369859502760418281e+14
1.276428854175452321e-01 1.404754848481389375e+14
1.281534569592154005e-01 1.440793282682160312e+14
1.286660707870522780e-01 1.477045000936080938e+14
1.291807350702004475e-01 1.513898370910960625e+14
1.296974580104812425e-01 1.551377454820935938e+14
1.302162478425231973e-01 1.588453918801115000e+14
1.307371128338932764e-01 1.627566870006866875e+14
1.312600612852288795e-01 1.667774933970821875e+14
1.317851015303697915e-01 1.707878644465851562e+14
1.323122419364912705e-01 1.748641737555563750e+14
1.328414909042372472e-01 1.789996967719044688e+14
1.333728568678542170e-01 1.807122973967169062e+14
1.339063482953256612e-01 1.874917839679475000e+14
1.344419736885069383e-01 1.918324178610152812e+14
1.349797415832609815e-01 1.962439131173399688e+14
1.355196605495940232e-01 2.007207319906943438e+14
1.360617391917924301e-01 2.052638932890220938e+14
1.366059861485595939e-01 2.098751951564223125e+14
1.371524100931538481e-01 2.145545121274632188e+14
1.377010197335264696e-01 2.193022545091951250e+14
1.382518238124605670e-01 2.241180670396986875e+14
1.388048311077104136e-01 2.290004336302622812e+14
1.393600504321412248e-01 2.339501009945234062e+14
1.399174906338697677e-01 2.389676480292570312e+14
1.404771605964052761e-01 2.440395566301016562e+14
1.410390692387908651e-01 2.491993864002444688e+14
1.416032255157460562e-01 2.544227373031106875e+14
1.421696384178090522e-01 2.597120614040516875e+14
1.427383169714803168e-01 2.650571561483716250e+14
1.433092702393662099e-01 2.704724562339680312e+14
1.438825073203236771e-01 2.759750695849124688e+14
1.444580373496049674e-01 2.815242941099267500e+14
1.450358694990033503e-01 2.871530136279985000e+14
1.456160129769993872e-01 2.928397890254872500e+14
1.461984770289073976e-01 2.985911857397248750e+14
1.467832709370230082e-01 3.044095212080637500e+14
1.473704040207710897e-01 3.102915697141211250e+14
1.479598856368541382e-01 3.162383046593784375e+14
1.485517251794015725e-01 3.222492322849720625e+14
1.491459320801191979e-01 3.283233992250867500e+14
1.497425158084396690e-01 3.344606347126178750e+14
1.503414858716734248e-01 3.406603707917303750e+14
1.509428518151600951e-01 3.469221024135632500e+14
1.515466232224207677e-01 3.532449722594739375e+14
1.521528097153104220e-01 3.596272402728536250e+14
1.527614209541716672e-01 3.660729893314683125e+14
1.533724666379883694e-01 3.725774116886618750e+14
1.539859565045403056e-01 3.791397018694997500e+14
1.546019003305584838e-01 3.857576044836160625e+14
1.552203079318807133e-01 3.923968453623413750e+14
1.558411891636082569e-01 3.989464543262359375e+14
1.564645539202626778e-01 4.054686166615685000e+14
1.570904121359437411e-01 4.126131736854093750e+14
1.577187737844875093e-01 4.194809016665232500e+14
1.583496488796254653e-01 4.263147426832335000e+14
1.589830474751439959e-01 4.336143534038801875e+14
1.596189796650445414e-01 4.407229052689290625e+14
1.602574555837047166e-01 4.478175292607706250e+14
1.608984854060395708e-01 4.545219774093721250e+14
1.615420793476636807e-01 4.616523271563133750e+14
1.621882476650543525e-01 4.691285761543190000e+14
1.628370006557145755e-01 4.761411191359035625e+14
1.634883486583374457e-01 4.834856277584390000e+14
1.641423020529707844e-01 4.911304605147219375e+14
1.647988712611826723e-01 4.988024276577370625e+14
1.654580667462274002e-01 5.062655227787294375e+14
1.661198990132123077e-01 5.135168052075874375e+14
1.667843786092651215e-01 5.211763292662527500e+14
1.674515161237022098e-01 5.288832122525143750e+14
1.681213221881969755e-01 5.366361652308647500e+14
1.687938074769497754e-01 5.441603145038525625e+14
1.694689827068575905e-01 5.519331406766793125e+14
1.701468586376850278e-01 5.593780755637254375e+14
1.708274460722357391e-01 5.673518435216642500e+14
1.715107558565246715e-01 5.751067684025197500e+14
1.721967988799507909e-01 5.830271787912635000e+14
1.728855860754705820e-01 5.909384246746628750e+14
1.735771284197724640e-01 5.988780190443091250e+14
1.742714369334515678e-01 6.067829775121895000e+14
1.749685226811853456e-01 6.147075978245363750e+14
1.756683967719100681e-01 6.226585235047122500e+14
1.763710703589977391e-01 6.306236281450708750e+14
1.770765546404337309e-01 6.386147723552933750e+14
1.777848608589954471e-01 6.466217989965188750e+14
1.784960003024314568e-01 6.546393375159450000e+14
1.792099843036411844e-01 6.626790823544283750e+14
1.799268242408557650e-01 6.707289032885627500e+14
1.806465315378191772e-01 6.787889406045402500e+14
1.813691176639704306e-01 6.868596331107083750e+14
1.820945941346263086e-01 6.949332848509870000e+14
1.828229725111648329e-01 7.030195016594633750e+14
1.835542644012094771e-01 7.110910432131472500e+14
1.842884814588143239e-01 7.191778261488801250e+14
1.850256353846495561e-01 7.272991284176591250e+14
1.857657379261881403e-01 7.353846151325202500e+14
1.865088008778928996e-01 7.434902588943363750e+14
1.872548360814044743e-01 7.515815741922745000e+14
1.880038554257300876e-01 7.596619464380277500e+14
1.887558708474330049e-01 7.677465398062265000e+14
1.895108943308226879e-01 7.758162843474596250e+14
1.902689379081460019e-01 7.838706855132847500e+14
1.910300136597785636e-01 7.919181062032390000e+14
1.917941337144176972e-01 7.999668987545247500e+14
1.925613102492753359e-01 8.079890673631581250e+14
1.933315554902724498e-01 8.159916093532735000e+14
1.941048817122335568e-01 8.239832866506340000e+14
1.948813012390824828e-01 8.319508821657111250e+14
1.956608264440388156e-01 8.398970793706210000e+14
1.964434697498149418e-01 8.478199344231837500e+14
1.972292436288141937e-01 8.557178561889263750e+14
1.980181606033294406e-01 8.635898359335480000e+14
1.988102332457427346e-01 8.714333117270716250e+14
1.996054741787257336e-01 8.792467415625540000e+14
2.004038960754406518e-01 8.870246550962342500e+14
2.012055116597424309e-01 8.947713590644386250e+14
2.020103337063813842e-01 9.024875821681831250e+14
2.028183750412069219e-01 9.101699205854480000e+14
2.036296485413717494e-01 9.178078415052112500e+14
2.044441671355372303e-01 9.254072060374563750e+14
2.052619438040793887e-01 9.329653358598890000e+14
2.060829915792957157e-01 9.404824415763357500e+14
2.069073235456129201e-01 9.479550750485762500e+14
2.077349528397953449e-01 9.553798783205946250e+14
2.085658926511545219e-01 9.627588845626596250e+14
2.094001562217591150e-01 9.700870998365693750e+14
2.102377568466461677e-01 9.773661482511757500e+14
2.110787078740327671e-01 9.845907943029552500e+14
2.119230227055288740e-01 9.917635188472035000e+14
2.127707147963510126e-01 9.988801795444315000e+14
2.136217976555363773e-01 1.005933606021901750e+15
2.144762848461585492e-01 1.012937645895544125e+15
2.153341899855431840e-01 1.019882612305469375e+15
2.161955267454853669e-01 1.026761087833191500e+15
2.170603088524672986e-01 1.033582923941451750e+15
2.179285500878772042e-01 1.040336884252542625e+15
2.188002642882286852e-01 1.047026567898646375e+15
2.196754653453815986e-01 1.053649815516455000e+15
2.205541672067631020e-01 1.060203619519156875e+15
2.214363838755901703e-01 1.066688581526565875e+15
2.223221294110925284e-01 1.073102123974767500e+15
2.232114179287369160e-01 1.079444379727414125e+15
2.241042636004518529e-01 1.085707011142523625e+15
2.250006806548536520e-01 1.091632329840235750e+15
2.259006833774730438e-01 1.097903121082250625e+15
2.268042861109829667e-01 1.103968648298781625e+15
2.277115032554268836e-01 1.109977803448132875e+15
2.286223492684485714e-01 1.115920371241987250e+15
2.295368386655223802e-01 1.121725529153851000e+15
2.304549860201844658e-01 1.127449111109066750e+15
2.313768059642651864e-01 1.133089867036020500e+15
2.323023131881222503e-01 1.138324720954572750e+15
2.332315224408747223e-01 1.142938428272378000e+15
2.341644485306381973e-01 1.147068540925917750e+15
2.351011063247607502e-01 1.153207710851572250e+15
2.360415107500598020e-01 1.157791819912461250e+15
2.369856767930600405e-01 1.164215922343939500e+15
2.379336195002322851e-01 1.166290242876779250e+15
2.388853539782332114e-01 1.173884383860854750e+15
2.398408953941461863e-01 1.176890767200563000e+15
2.408002589757227141e-01 1.180465241083589250e+15
2.417634600116256582e-01 1.188841072781103500e+15
2.427305138516721306e-01 1.193976518665260750e+15
2.437014359070788505e-01 1.198460275632888750e+15
2.446762416507071713e-01 1.202828137018552000e+15
2.456549466173099938e-01 1.207137995690818000e+15
2.466375664037792625e-01 1.211328117323841500e+15
2.476241166693943785e-01 1.215418950538321750e+15
2.486146131360719436e-01 1.219410539971735750e+15
2.496090715886161993e-01 1.223312964257370000e+15
2.506075078749706586e-01 1.227127197215450750e+15
2.516099379064705155e-01 1.230827217510146250e+15
2.526163776580964138e-01 1.234420265336818250e+15
2.536268431687287994e-01 1.237928398754356250e+15
2.546413505414037437e-01 1.241340876370532750e+15
2.556599159435693491e-01 1.244650669974876750e+15
2.566825556073435988e-01 1.247509320022466250e+15
2.577092858297729827e-01 1.250921952916075000e+15
2.587401229730920682e-01 1.252688312349013250e+15
2.597750834649844576e-01 1.253606819695085750e+15
2.608141837988444123e-01 1.256897490776711750e+15
2.618574405340398092e-01 1.260478542192719500e+15
2.629048702961759298e-01 1.261799185020437500e+15
2.639564897773606367e-01 1.267392251957790250e+15
2.650123157364701054e-01 1.269771588709691500e+15
2.660723649994159445e-01 1.272046957744688500e+15
2.671366544594135917e-01 1.274218949725812000e+15
2.682052010772512096e-01 1.276287263906680500e+15
2.692780218815602478e-01 1.278250327777846500e+15
2.703551339690865030e-01 1.280112119689089250e+15
2.714365545049627904e-01 1.281808392415832750e+15
2.725223007229827243e-01 1.283462339931329250e+15
2.736123899258746106e-01 1.284762878285681750e+15
2.747068394855781692e-01 1.285424457259425250e+15
2.758056668435204806e-01 1.287482192288881000e+15
2.769088895108945403e-01 1.289092273918185250e+15
2.780165250689380918e-01 1.290231398229560000e+15
2.791285911692138466e-01 1.286970916143883000e+15
2.802451055338907038e-01 1.288055554287515500e+15
2.813660859560263017e-01 1.293020652895247250e+15
2.824915502998503469e-01 1.293744947160354500e+15
2.836215165010497197e-01 1.294366407519480000e+15
2.847560025670539119e-01 1.294886029000628250e+15
2.858950265773221866e-01 1.295305975767159250e+15
2.870386066836315142e-01 1.295623292599755500e+15
2.881867611103660631e-01 1.295836431434270500e+15
2.893395081548075787e-01 1.295957174271911250e+15
2.904968661874267610e-01 1.295974277210626750e+15
2.916588536521764197e-01 1.295891273869433250e+15
2.928254890667851273e-01 1.295699691680217750e+15
2.939967910230522619e-01 1.295426341182711000e+15
2.951727781871444911e-01 1.295036753174043000e+15
2.963534692998930908e-01 1.294572087806390000e+15
2.975388831770926501e-01 1.293995342302982750e+15
2.987290387098009981e-01 1.293321118793424500e+15
2.999239548646402409e-01 1.292564011389707000e+15
3.011236506840988536e-01 1.291705976410701250e+15
3.023281452868351593e-01 1.290750661716406500e+15
3.035374578679824742e-01 1.289701304370602000e+15
3.047516076994544187e-01 1.288558585187953000e+15
3.059706141302522830e-01 1.287322728791815500e+15
3.071944965867733357e-01 1.285979657762290250e+15
3.084232745731204095e-01 1.284555310427668500e+15
3.096569676714128194e-01 1.283067766791139750e+15
3.108955955420985018e-01 1.281468350286069500e+15
3.121391779242668751e-01 1.279780256314307500e+15
3.133877346359639215e-01 1.278003490226928500e+15
3.146412855745078230e-01 1.276138204737853500e+15
3.158998507168058190e-01 1.274181653274856750e+15
3.171634501196730627e-01 1.272149993017296250e+15
3.184321039201517545e-01 1.270026324144143500e+15
3.197058323358323295e-01 1.267820032115058250e+15
3.209846556651756444e-01 1.265532239482681250e+15
3.222685942878363852e-01 1.263152628793028000e+15
3.235576686649877520e-01 1.260661916413440000e+15
3.248518993396476984e-01 1.258166447870210250e+15
3.261513069370062801e-01 1.255558721558631750e+15
3.274559121647543369e-01 1.252864416684669500e+15
3.287657358134133401e-01 1.250093536078089000e+15
3.300807987566670154e-01 1.247244624025737250e+15
3.314011219516936890e-01 1.244319187736019500e+15
3.327267264395004642e-01 1.241311507703937500e+15
3.340576333452584534e-01 1.238238186329845500e+15
3.353938638786395088e-01 1.235081146815962750e+15
3.367354393341540630e-01 1.231842288956351000e+15
3.380823810914907468e-01 1.228576081730962000e+15
3.394347106158566718e-01 1.225217231758981000e+15
3.407924494583201014e-01 1.221790750475104750e+15
3.421556192561533982e-01 1.218290738545030500e+15
3.435242417331779707e-01 1.214723103667200500e+15
3.448983387001106626e-01 1.211088328682293250e+15
3.462779320549111417e-01 1.207388972510762000e+15
3.476630437831307319e-01 1.203625097703406250e+15
3.490536959582632992e-01 1.199797849748069000e+15
3.504499107420963600e-01 1.195908368072312500e+15
3.518517103850647421e-01 1.191957517575744750e+15
3.532591172266050239e-01 1.187946206242698250e+15
3.546721536955114717e-01 1.183875648899226500e+15
3.560908423102934761e-01 1.179746858725468750e+15
3.575152056795346533e-01 1.175560875072299500e+15
3.589452665022527800e-01 1.171318739394309500e+15
3.603810475682617254e-01 1.167021652766283000e+15
3.618225717585348278e-01 1.162670422292521500e+15
3.632698620455689364e-01 1.158266237096600000e+15
3.647229414937512293e-01 1.153810067714855000e+15
3.661818332597261971e-01 1.149303027364861250e+15
3.676465605927651259e-01 1.144746187945935250e+15
3.691171468351361895e-01 1.140137837012197000e+15
3.705936154224767076e-01 1.135486849240846250e+15
3.720759898841666247e-01 1.130786900220003500e+15
3.735642938437032656e-01 1.126040710684546500e+15
3.750585510190780902e-01 1.121250808258936125e+15
3.765587852231543908e-01 1.116411715304867000e+15
3.780650203640470441e-01 1.111540421822727625e+15
3.795772804455032068e-01 1.106622483625406875e+15
3.810955895672852312e-01 1.101664047678744000e+15
3.826199719255543585e-01 1.096666272977052500e+15
3.841504518132565771e-01 1.091630070922920125e+15
3.856870536205096456e-01 1.086556521891044125e+15
3.872298018349916715e-01 1.081446634268169750e+15
3.887787210423316320e-01 1.076301422029155750e+15
3.903338359265008939e-01 1.071121833455805125e+15
3.918951712702069545e-01 1.065909046227454125e+15
3.934627519552877928e-01 1.058617331474823625e+15
3.950366029631089404e-01 1.055387650553409875e+15
3.966167493749613859e-01 1.048549243157021125e+15
3.982032163724612550e-01 1.044745011103197375e+15
3.997960292379510450e-01 1.039380734265035500e+15
4.013952133549028578e-01 1.033989094099434625e+15
4.030007942083224659e-01 1.028571143628976125e+15
4.046127973851557647e-01 1.023127797977891500e+15
4.062312485746963908e-01 1.017660015327136000e+15
4.078561735689951728e-01 1.012168763308089875e+15
4.094875982632711353e-01 1.006654986711439000e+15
4.111255486563242245e-01 1.001119629527832500e+15
4.127700508509495880e-01 9.955636259552067500e+14
4.144211310543532978e-01 9.899879060237788750e+14
4.160788155785707931e-01 9.843933849898900000e+14
4.177431308408850463e-01 9.787809479731005000e+14
4.194141033642486138e-01 9.731516066749052500e+14
4.210917597777056320e-01 9.675061457670330000e+14
4.227761268168164221e-01 9.618454721061857500e+14
4.244672313240837602e-01 9.561705366841038750e+14
4.261651002493800910e-01 9.504821451904326250e+14
4.278697606503775730e-01 9.447811861625970000e+14
4.295812396929790666e-01 9.390684251501545000e+14
4.312995646517510107e-01 9.333449400545500000e+14
4.330247629103580187e-01 9.276114240374870000e+14
4.347568619619994745e-01 9.218686905951950000e+14
4.364958894098474596e-01 9.161176044440602500e+14
4.382418729674867897e-01 9.103589529332562500e+14
4.399948404593567730e-01 9.045935097512622500e+14
4.417548198211941890e-01 8.988222144113426250e+14
4.435218391004789873e-01 8.930456759752872500e+14
4.452959264568808750e-01 8.872648322440406250e+14
4.470771101627084021e-01 8.814802974759846250e+14
4.488654186033592119e-01 8.756929989190837500e+14
4.506608802777726241e-01 8.699035027997205000e+14
4.524635237988837710e-01 8.641127356435708750e+14
4.542733778940792333e-01 8.583212230019093750e+14
4.560904714056555065e-01 8.525299482616300000e+14
4.579148332912781894e-01 8.467394067174570000e+14
4.597464926244433370e-01 8.409504036297768750e+14
4.615854785949410899e-01 8.351635808614355000e+14
4.634318205093208576e-01 8.293796400019185000e+14
4.652855477913582227e-01 8.235992655797378750e+14
4.671466899825236219e-01 8.178231134312081250e+14
4.690152767424536906e-01 8.120518404516780000e+14
4.708913378494234969e-01 8.062860921067352500e+14
4.727749032008212171e-01 8.005265039355133750e+14
4.746660028136244769e-01 7.947737001198516250e+14
4.765646668248789131e-01 7.890282964130838750e+14
4.784709254921784560e-01 7.832909005008812500e+14
4.803848091941470555e-01 7.775621041147518750e+14
4.823063484309236815e-01 7.718425003498803750e+14
4.842355738246474361e-01 7.661326599895996250e+14
4.861725161199459966e-01 7.604331511618001250e+14
4.881172061844257226e-01 7.547445303087765000e+14
4.900696750091634302e-01 7.490673456514551250e+14
