# Wavelength (micrometer), Flux (W / m2 / m)
1.000553076518779783e-01 1.972898093985378418e+11
1.004555288824854897e-01 2.195133709892241016e+13
1.008573509980154326e-01 2.278257338159992969e+13
1.012607804020075053e-01 2.363975750312928125e+13
1.016658235236155422e-01 2.452383177699903906e+13
1.020724868177099870e-01 2.543503209238941406e+13
1.024807767649808382e-01 2.632326140431650781e+13
1.028906998720407612e-01 2.733755474504614844e+13
1.033022626715289355e-01 2.833955865030082812e+13
1.037154717222150413e-01 2.901356056999398828e+13
1.041303336091038839e-01 3.042363639316323047e+13
1.045468549435403099e-01 3.151116450297967969e+13
1.049650423633144702e-01 3.263177000503628906e+13
1.053849025327677214e-01 3.377662513026723047e+13
1.058064421428987906e-01 3.496902451456844922e+13
1.062296679114703990e-01 3.611573716656060156e+13
1.066545865831162732e-01 3.738007143060504688e+13
1.070812049294487533e-01 3.871578206781021094e+13
1.075095297491665408e-01 3.998116443133983594e+13
1.079395678681632220e-01 4.141929202486235938e+13
1.083713261396358624e-01 4.278415960971036719e+13
1.088048114441943909e-01 4.421828981555211719e+13
1.092400306899711654e-01 4.570947749929119531e+13
1.096769908127310511e-01 4.709636905322625000e+13
1.101156987759819850e-01 4.874104572570726562e+13
1.105561615710859147e-01 5.037765168264564844e+13
1.109983862173702651e-01 5.200295776604152344e+13
1.114423797622397516e-01 5.368969460767936719e+13
1.118881492812886930e-01 5.541785396633239844e+13
1.123357018784138517e-01 5.708463079722757812e+13
1.127850446859275102e-01 5.883212861616612500e+13
1.132361848646712132e-01 6.077258404743072656e+13
1.136891296041298988e-01 6.271601976694838281e+13
1.141438861225464035e-01 6.463346266465943750e+13
1.146004616670366072e-01 6.635723444198907812e+13
1.150588635137047705e-01 6.854765692025025781e+13
1.155190989677595953e-01 7.074568339670670312e+13
1.159811753636306314e-01 7.294390284562551562e+13
1.164451000650851553e-01 7.513248469683150000e+13
1.169108804653455069e-01 7.734538900027020312e+13
1.173785239872068981e-01 7.965030525387817188e+13
1.178480380831557206e-01 8.199237404032212500e+13
1.183194302354883543e-01 8.437654156460392188e+13
1.187927079564302935e-01 8.682128371476068750e+13
1.192678787882560099e-01 8.931592115630865625e+13
1.197449503034090645e-01 9.187364880863889062e+13
1.202239301046226783e-01 9.448018896050034375e+13
1.207048258250411760e-01 9.714214702722285938e+13
1.211876451283413342e-01 9.985262221897390625e+13
1.216723957088547137e-01 1.022754565781487031e+14
1.221590852916901310e-01 1.054631842212784688e+14
1.226477216328568792e-01 1.083498989046794844e+14
1.231383125193883099e-01 1.112980408773122188e+14
1.236308657694658586e-01 1.143013778270435156e+14
1.241253892325437369e-01 1.173630254020975781e+14
1.246218907894739159e-01 1.204930585509718281e+14
1.251203783526317892e-01 1.236779026325852500e+14
1.256208598660423226e-01 1.269237941393369844e+14
1.261233433055065078e-01 1.301528405707021094e+14
1.266278366787285392e-01 1.334989288997959375e+14
1.271343480254434610e-01 1.369579629196172656e+14
1.276428854175452321e-01 1.404527786596373750e+14
1.281534569592154005e-01 1.440803835505804062e+14
1.286660707870522780e-01 1.477041993192562188e+14
1.291807350702004475e-01 1.513897036401552500e+14
1.296974580104812425e-01 1.551365619832264375e+14
1.302162478425231973e-01 1.587875630414557500e+14
1.307371128338932764e-01 1.627102952456751250e+14
1.312600612852288795e-01 1.667774632111106250e+14
1.317851015303697915e-01 1.707878353955049688e+14
1.323122419364912705e-01 1.748641428366944062e+14
1.328414909042372472e-01 1.790013446570996250e+14
1.333728568678542170e-01 1.808301539640869375e+14
1.339063482953256612e-01 1.874917842728123438e+14
1.344419736885069383e-01 1.918311815485771875e+14
1.349797415832609815e-01 1.962439172971047500e+14
1.355196605495940232e-01 2.007206974589541562e+14
1.360617391917924301e-01 2.052629539880616875e+14
1.366059861485595939e-01 2.098739051040090625e+14
1.371524100931538481e-01 2.145532536799461250e+14
1.377010197335264696e-01 2.193014951609796875e+14
1.382518238124605670e-01 2.241179484566323438e+14
1.388048311077104136e-01 2.290003869448099062e+14
1.393600504321412248e-01 2.339497885104838125e+14
1.399174906338697677e-01 2.389672189434173750e+14
1.404771605964052761e-01 2.440303037473856562e+14
1.410390692387908651e-01 2.491946927050022500e+14
1.416032255157460562e-01 2.544201531570924062e+14
1.421696384178090522e-01 2.597108452759012812e+14
1.427383169714803168e-01 2.650496402449272188e+14
1.433092702393662099e-01 2.704606215078051562e+14
1.438825073203236771e-01 2.759730405918285625e+14
1.444580373496049674e-01 2.815187536358810000e+14
1.450358694990033503e-01 2.871528011845388750e+14
1.456160129769993872e-01 2.928396293041978750e+14
1.461984770289073976e-01 2.985908641408081250e+14
1.467832709370230082e-01 3.044093971507856250e+14
1.473704040207710897e-01 3.102913606599133750e+14
1.479598856368541382e-01 3.162382031662133750e+14
1.485517251794015725e-01 3.222492304958979375e+14
1.491459320801191979e-01 3.283233905062930000e+14
1.497425158084396690e-01 3.344606214738176875e+14
1.503414858716734248e-01 3.406603122098911250e+14
1.509428518151600951e-01 3.469220144644291250e+14
1.515466232224207677e-01 3.532446285189431250e+14
1.521528097153104220e-01 3.596258254763842500e+14
1.527614209541716672e-01 3.660724316637360625e+14
1.533724666379883694e-01 3.725773623870609375e+14
1.539859565045403056e-01 3.791396743390722500e+14
1.546019003305584838e-01 3.857556405894219375e+14
1.552203079318807133e-01 3.923691152595333750e+14
1.558411891636082569e-01 3.988270566897717500e+14
1.564645539202626778e-01 4.052675008590002500e+14
1.570904121359437411e-01 4.124988876260201875e+14
1.577187737844875093e-01 4.193532129812338750e+14
1.583496488796254653e-01 4.261510743421386250e+14
1.589830474751439959e-01 4.335806932762315000e+14
1.596189796650445414e-01 4.407224655233810000e+14
1.602574555837047166e-01 4.478087353558432500e+14
1.608984854060395708e-01 4.543165723248133750e+14
1.615420793476636807e-01 4.614328497166138750e+14
1.621882476650543525e-01 4.689558845503223750e+14
1.628370006557145755e-01 4.758384536743242500e+14
1.634883486583374457e-01 4.831773912222380625e+14
1.641423020529707844e-01 4.909492005168757500e+14
1.647988712611826723e-01 4.987344267140131875e+14
1.654580667462274002e-01 5.062385663422510000e+14
1.661198990132123077e-01 5.133193506895407500e+14
1.667843786092651215e-01 5.210274872296882500e+14
1.674515161237022098e-01 5.287865693105879375e+14
1.681213221881969755e-01 5.366135247888041250e+14
1.687938074769497754e-01 5.440521982180605000e+14
1.694689827068575905e-01 5.518676732133960000e+14
1.701468586376850278e-01 5.591838587562612500e+14
1.708274460722357391e-01 5.672450231901181250e+14
1.715107558565246715e-01 5.749793302718795000e+14
1.721967988799507909e-01 5.829507411755788750e+14
1.728855860754705820e-01 5.908970330150638750e+14
1.735771284197724640e-01 5.988758248065682500e+14
1.742714369334515678e-01 6.067820122251967500e+14
1.749685226811853456e-01 6.147053193259356250e+14
1.756683967719100681e-01 6.226578196064046250e+14
1.763710703589977391e-01 6.306201877186632500e+14
1.770765546404337309e-01 6.386133522983348750e+14
1.777848608589954471e-01 6.466212719611331250e+14
1.784960003024314568e-01 6.546360518566017500e+14
1.792099843036411844e-01 6.626781752675396250e+14
1.799268242408557650e-01 6.707284740968981250e+14
1.806465315378191772e-01 6.787882211927470000e+14
1.813691176639704306e-01 6.868592068786203750e+14
1.820945941346263086e-01 6.949296376253343750e+14
1.828229725111648329e-01 7.030166003726541250e+14
1.835542644012094771e-01 7.110759828630452500e+14
1.842884814588143239e-01 7.191583588909303750e+14
1.850256353846495561e-01 7.272967746516570000e+14
1.857657379261881403e-01 7.353757552987951250e+14
1.865088008778928996e-01 7.434891799067557500e+14
1.872548360814044743e-01 7.515809246673145000e+14
1.880038554257300876e-01 7.596576107702026250e+14
1.887558708474330049e-01 7.677456254309310000e+14
1.895108943308226879e-01 7.758143237599132500e+14
1.902689379081460019e-01 7.838640870789052500e+14
1.910300136597785636e-01 7.919097316875851250e+14
1.917941337144176972e-01 7.999663399302008750e+14
1.925613102492753359e-01 8.079883268159572500e+14
1.933315554902724498e-01 8.159908964789007500e+14
1.941048817122335568e-01 8.239832577020570000e+14
1.948813012390824828e-01 8.319507871744758750e+14
1.956608264440388156e-01 8.398970107862857500e+14
1.964434697498149418e-01 8.478197659874933750e+14
1.972292436288141937e-01 8.557175235927482500e+14
1.980181606033294406e-01 8.635897484858583750e+14
1.988102332457427346e-01 8.714332268073258750e+14
1.996054741787257336e-01 8.792465081540647500e+14
2.004038960754406518e-01 8.870216281817715000e+14
2.012055116597424309e-01 8.947668103090853750e+14
2.020103337063813842e-01 9.024843792388376250e+14
2.028183750412069219e-01 9.101697318620248750e+14
2.036296485413717494e-01 9.178064000606298750e+14
2.044441671355372303e-01 9.254052924541978750e+14
2.052619438040793887e-01 9.329629681992247500e+14
2.060829915792957157e-01 9.404808326310452500e+14
2.069073235456129201e-01 9.479542232412622500e+14
2.077349528397953449e-01 9.553786100528325000e+14
2.085658926511545219e-01 9.627583978751891250e+14
2.094001562217591150e-01 9.700863068836123750e+14
2.102377568466461677e-01 9.773660924933167500e+14
2.110787078740327671e-01 9.845900433540652500e+14
2.119230227055288740e-01 9.917632753245393750e+14
2.127707147963510126e-01 9.988799415598012500e+14
2.136217976555363773e-01 1.005929048281695000e+15
2.144762848461585492e-01 1.012934594603240000e+15
2.153341899855431840e-01 1.019881491936500500e+15
2.161955267454853669e-01 1.026758319290368000e+15
2.170603088524672986e-01 1.033582387116473875e+15
2.179285500878772042e-01 1.040336012656375125e+15
2.188002642882286852e-01 1.047026029805891875e+15
2.196754653453815986e-01 1.053649789942736000e+15
2.205541672067631020e-01 1.060203141955793750e+15
2.214363838755901703e-01 1.066688083970505625e+15
2.223221294110925284e-01 1.073100934298707375e+15
2.232114179287369160e-01 1.079443054081520625e+15
2.241042636004518529e-01 1.085701305979219000e+15
2.250006806548536520e-01 1.091466524047566500e+15
2.259006833774730438e-01 1.097823407518919000e+15
2.268042861109829667e-01 1.103903762870589625e+15
2.277115032554268836e-01 1.109940605843286000e+15
2.286223492684485714e-01 1.115919765733100250e+15
2.295368386655223802e-01 1.121725279926394375e+15
2.304549860201844658e-01 1.127448939257878500e+15
2.313768059642651864e-01 1.133089679801382750e+15
2.323023131881222503e-01 1.138145209964279500e+15
2.332315224408747223e-01 1.142505443419591750e+15
2.341644485306381973e-01 1.146355860733769250e+15
2.351011063247607502e-01 1.152706090549091750e+15
2.360415107500598020e-01 1.156963491380858500e+15
2.369856767930600405e-01 1.163789320097755500e+15
2.379336195002322851e-01 1.165595784607688250e+15
2.388853539782332114e-01 1.173402389008001250e+15
2.398408953941461863e-01 1.176497300928292750e+15
2.408002589757227141e-01 1.179389668079772250e+15
2.417634600116256582e-01 1.188560565871011000e+15
2.427305138516721306e-01 1.193972278604172000e+15
2.437014359070788505e-01 1.198457801551068500e+15
2.446762416507071713e-01 1.202813897283046750e+15
2.456549466173099938e-01 1.207136346798381500e+15
2.466375664037792625e-01 1.211323840129526500e+15
2.476241166693943785e-01 1.215410587612803500e+15
2.486146131360719436e-01 1.219397044085299000e+15
2.496090715886161993e-01 1.223300110031102500e+15
2.506075078749706586e-01 1.227121738700798000e+15
2.516099379064705155e-01 1.230819454742133750e+15
2.526163776580964138e-01 1.234405515147446750e+15
2.536268431687287994e-01 1.237916474431146500e+15
2.546413505414037437e-01 1.241335015907270500e+15
2.556599159435693491e-01 1.244649820214494750e+15
2.566825556073435988e-01 1.247318778354597250e+15
2.577092858297729827e-01 1.250902969157894500e+15
2.587401229730920682e-01 1.252233543590071250e+15
2.597750834649844576e-01 1.253385406938837000e+15
2.608141837988444123e-01 1.256538114843919500e+15
2.618574405340398092e-01 1.259892349134252000e+15
2.629048702961759298e-01 1.260935276631639250e+15
2.639564897773606367e-01 1.267392145575234500e+15
2.650123157364701054e-01 1.269771593932854500e+15
2.660723649994159445e-01 1.272046815382009250e+15
2.671366544594135917e-01 1.274218846279382250e+15
2.682052010772512096e-01 1.276287245589439250e+15
2.692780218815602478e-01 1.278249453354000500e+15
2.703551339690865030e-01 1.280112041141869000e+15
2.714365545049627904e-01 1.281770362740341500e+15
2.725223007229827243e-01 1.283424956559352750e+15
2.736123899258746106e-01 1.284589448591359500e+15
2.747068394855781692e-01 1.284885268789169000e+15
2.758056668435204806e-01 1.287279978326892750e+15
2.769088895108945403e-01 1.289089091187996000e+15
2.780165250689380918e-01 1.290230543839608000e+15
2.791285911692138466e-01 1.287157405042779250e+15
2.802451055338907038e-01 1.288244508998972500e+15
2.813660859560263017e-01 1.293020450111949750e+15
2.824915502998503469e-01 1.293744900475156000e+15
2.836215165010497197e-01 1.294365899804544500e+15
2.847560025670539119e-01 1.294885201169031250e+15
2.858950265773221866e-01 1.295305650464163250e+15
2.870386066836315142e-01 1.295622686840498500e+15
2.881867611103660631e-01 1.295833357604168250e+15
2.893395081548075787e-01 1.295956741625723500e+15
2.904968661874267610e-01 1.295974124832317500e+15
2.916588536521764197e-01 1.295891015397924750e+15
2.928254890667851273e-01 1.295693236324234750e+15
2.939967910230522619e-01 1.295424421161273500e+15
2.951727781871444911e-01 1.295027797793816500e+15
2.963534692998930908e-01 1.294570399266312250e+15
2.975388831770926501e-01 1.293991321096339750e+15
2.987290387098009981e-01 1.293314126161783000e+15
2.999239548646402409e-01 1.292562317492728000e+15
3.011236506840988536e-01 1.291705980158343750e+15
3.023281452868351593e-01 1.290750681214730750e+15
3.035374578679824742e-01 1.289701312225624750e+15
3.047516076994544187e-01 1.288558584653651500e+15
3.059706141302522830e-01 1.287322424543800750e+15
3.071944965867733357e-01 1.285969347985674000e+15
3.084232745731204095e-01 1.284541525381489250e+15
3.096569676714128194e-01 1.283067746484573750e+15
3.108955955420985018e-01 1.281468137095346750e+15
3.121391779242668751e-01 1.279780128956213500e+15
3.133877346359639215e-01 1.278003217236462500e+15
3.146412855745078230e-01 1.276137152973791750e+15
3.158998507168058190e-01 1.274176932873887250e+15
3.171634501196730627e-01 1.272148539532861750e+15
3.184321039201517545e-01 1.270023712339685500e+15
3.197058323358323295e-01 1.267817326452001000e+15
3.209846556651756444e-01 1.265530680856871500e+15
3.222685942878363852e-01 1.263146312189583000e+15
3.235576686649877520e-01 1.260632475490908500e+15
3.248518993396476984e-01 1.258161604886086750e+15
3.261513069370062801e-01 1.255558229823240750e+15
3.274559121647543369e-01 1.252863448996650000e+15
3.287657358134133401e-01 1.250093071389007500e+15
3.300807987566670154e-01 1.247244110607987500e+15
3.314011219516936890e-01 1.244318428742313500e+15
3.327267264395004642e-01 1.241306080149576250e+15
3.340576333452584534e-01 1.238233601848093500e+15
3.353938638786395088e-01 1.235070927749020000e+15
3.367354393341540630e-01 1.231820716074503750e+15
3.380823810914907468e-01 1.228570412714043750e+15
3.394347106158566718e-01 1.225213754637863500e+15
3.407924494583201014e-01 1.221790620514776000e+15
3.421556192561533982e-01 1.218290737248618500e+15
3.435242417331779707e-01 1.214723122025630750e+15
3.448983387001106626e-01 1.211087911304096250e+15
3.462779320549111417e-01 1.207388663779979250e+15
3.476630437831307319e-01 1.203624828656103250e+15
3.490536959582632992e-01 1.199797628434255500e+15
3.504499107420963600e-01 1.195908277102642250e+15
3.518517103850647421e-01 1.191957532029502750e+15
3.532591172266050239e-01 1.187946218561160250e+15
3.546721536955114717e-01 1.183875666366404000e+15
3.560908423102934761e-01 1.179746867412312500e+15
3.575152056795346533e-01 1.175560869766487750e+15
3.589452665022527800e-01 1.171318698944336000e+15
3.603810475682617254e-01 1.167021670406407250e+15
3.618225717585348278e-01 1.162670425253117000e+15
3.632698620455689364e-01 1.158266250855994000e+15
3.647229414937512293e-01 1.153810063194497500e+15
3.661818332597261971e-01 1.149303020748962000e+15
3.676465605927651259e-01 1.144746205486522750e+15
3.691171468351361895e-01 1.140136157750525000e+15
3.705936154224767076e-01 1.135486705021504750e+15
3.720759898841666247e-01 1.130786864820810750e+15
3.735642938437032656e-01 1.126040404233281750e+15
3.750585510190780902e-01 1.121250805442594875e+15
3.765587852231543908e-01 1.116408459183674250e+15
3.780650203640470441e-01 1.111540428004551625e+15
3.795772804455032068e-01 1.106622497589694125e+15
3.810955895672852312e-01 1.101664037295745375e+15
3.826199719255543585e-01 1.096666286908390875e+15
3.841504518132565771e-01 1.091630081891539375e+15
3.856870536205096456e-01 1.086556538662352750e+15
3.872298018349916715e-01 1.081446651308700625e+15
3.887787210423316320e-01 1.076301434470650125e+15
3.903338359265008939e-01 1.071121794541775500e+15
3.918951712702069545e-01 1.065909013714789375e+15
3.934627519552877928e-01 1.058503893035760750e+15
3.950366029631089404e-01 1.055387661091907125e+15
3.966167493749613859e-01 1.048306273839707625e+15
3.982032163724612550e-01 1.044745017852779250e+15
3.997960292379510450e-01 1.039380750356216250e+15
4.013952133549028578e-01 1.033989091932736125e+15
4.030007942083224659e-01 1.028571152337268125e+15
4.046127973851557647e-01 1.023127813398959750e+15
4.062312485746963908e-01 1.017660029726429250e+15
4.078561735689951728e-01 1.012168778220156125e+15
4.094875982632711353e-01 1.006655001689298750e+15
4.111255486563242245e-01 1.001119644034677125e+15
4.127700508509495880e-01 9.955636376309233750e+14
4.144211310543532978e-01 9.899879195429143750e+14
4.160788155785707931e-01 9.843933956739066250e+14
4.177431308408850463e-01 9.787809348913280000e+14
4.194141033642486138e-01 9.731516183311795000e+14
4.210917597777056320e-01 9.675061577390007500e+14
4.227761268168164221e-01 9.618454690592001250e+14
4.244672313240837602e-01 9.561705480498531250e+14
4.261651002493800910e-01 9.504821558883130000e+14
4.278697606503775730e-01 9.447811964082021250e+14
4.295812396929790666e-01 9.390683741530495000e+14
4.312995646517510107e-01 9.333449173008135000e+14
4.330247629103580187e-01 9.276114225018120000e+14
4.347568619619994745e-01 9.218686903230766250e+14
4.364958894098474596e-01 9.161176145571121250e+14
4.382418729674867897e-01 9.103589595984877500e+14
4.399948404593567730e-01 9.045934846697031250e+14
4.417548198211941890e-01 8.988222177115936250e+14
4.435218391004789873e-01 8.930456554519255000e+14
4.452959264568808750e-01 8.872648357619175000e+14
4.470771101627084021e-01 8.814802739741841250e+14
4.488654186033592119e-01 8.756930049804855000e+14
4.506608802777726241e-01 8.699034776804675000e+14
4.524635237988837710e-01 8.641127356653001250e+14
4.542733778940792333e-01 8.583211744087366250e+14
4.560904714056555065e-01 8.525299426437585000e+14
4.579148332912781894e-01 8.467393972974533750e+14
4.597464926244433370e-01 8.409504103234495000e+14
4.615854785949410899e-01 8.351635886883192500e+14
4.634318205093208576e-01 8.293796448072341250e+14
4.652855477913582227e-01 8.235992725779195000e+14
4.671466899825236219e-01 8.178231207522503750e+14
4.690152767424536906e-01 8.120518480468995000e+14
4.708913378494234969e-01 8.062860990649390000e+14
4.727749032008212171e-01 8.005265113823402500e+14
4.746660028136244769e-01 7.947737074564348750e+14
4.765646668248789131e-01 7.890283027345008750e+14
4.784709254921784560e-01 7.832909073060388750e+14
4.803848091941470555e-01 7.775621094438825000e+14
4.823063484309236815e-01 7.718425073435135000e+14
4.842355738246474361e-01 7.661326668573663750e+14
4.861725161199459966e-01 7.604331576453282500e+14
4.881172061844257226e-01 7.547445370751197500e+14
4.900696750091634302e-01 7.490673523547155000e+14
