# Temperature (K), Pressure (bars)
9.240362010813166762e+02 3.162277660168379530e-05
9.734772703197372721e+02 5.623413251903490700e-05
1.022918340103585933e+03 1.000000000000000048e-04
1.066988173814061611e+03 1.778279410038922698e-04
1.109120384765127028e+03 3.162277660168379394e-04
1.153254377581289873e+03 5.623413251903490971e-04
1.202187575147671396e+03 1.000000000000000021e-03
1.260334396541457863e+03 1.778279410038922752e-03
1.335559940165344187e+03 3.162277660168379394e-03
1.423364973157684744e+03 5.623413251903490971e-03
1.516797783775866492e+03 1.000000000000000021e-02
1.620613527269809310e+03 1.778279410038922925e-02
1.728639280427147469e+03 3.162277660168379134e-02
1.841676837374860497e+03 5.623413251903491145e-02
1.972667578339760439e+03 1.000000000000000056e-01
2.148805841590333785e+03 1.778279410038922925e-01
2.375599876713714821e+03 3.162277660168379412e-01
2.603221088647007491e+03 5.623413251903490728e-01
2.812385819198971149e+03 1.000000000000000000e+00
3.019079576224907214e+03 1.778279410038922759e+00
3.228660842428881551e+03 3.162277660168379523e+00
3.445765732011978344e+03 5.623413251903491172e+00
3.675595425899075963e+03 1.000000000000000000e+01
3.923637529516632185e+03 1.778279410038922848e+01
4.197737911132760019e+03 3.162277660168379256e+01
4.503182494143904478e+03 5.623413251903490817e+01
4.847763095574656290e+03 1.000000000000000000e+02
5.235094946360744871e+03 1.778279410038922776e+02
5.689842395050741288e+03 3.162277660168379612e+02
