# Temperature (K), Pressure (bars)
2.246584188293168609e+03 9.999999999999999547e-07
2.273347166003117309e+03 1.778279410038922901e-06
2.300110143713065554e+03 3.162277660168379191e-06
2.331816353794109091e+03 5.623413251903491208e-06
2.367467391435220634e+03 1.000000000000000082e-05
2.405505790419938421e+03 1.778279410038922901e-05
2.445504125680895868e+03 3.162277660168379530e-05
2.485592607506930108e+03 5.623413251903490700e-05
2.522978621576199203e+03 1.000000000000000048e-04
2.555217902582612169e+03 1.778279410038922698e-04
2.582019690171626280e+03 3.162277660168379394e-04
2.606631386232702425e+03 5.623413251903490971e-04
2.634549055816046803e+03 1.000000000000000021e-03
2.670990278435433083e+03 1.778279410038922752e-03
2.719545254190173637e+03 3.162277660168379394e-03
2.781739703506000296e+03 5.623413251903490971e-03
2.858305612086055135e+03 1.000000000000000021e-02
2.947025387089070136e+03 1.778279410038922925e-02
3.054108756181131866e+03 3.162277660168379134e-02
3.192898727574349778e+03 5.623413251903491145e-02
3.363692023226987203e+03 1.000000000000000056e-01
3.550872722846470424e+03 1.778279410038922925e-01
3.770604870387393930e+03 3.162277660168379412e-01
4.034705659249112159e+03 5.623413251903490728e-01
4.341100038274333201e+03 1.000000000000000000e+00
4.742535646225635901e+03 1.778279410038922759e+00
5.323385667676612684e+03 3.162277660168379523e+00
6.249247768861034274e+03 5.623413251903491172e+00
7.650376591982095306e+03 1.000000000000000000e+01
9.384982319234241004e+03 1.778279410038922848e+01
1.000000000000000000e+04 3.162277660168379256e+01
1.000000000000000000e+04 5.623413251903490817e+01
1.000000000000000000e+04 1.000000000000000000e+02
1.000000000000000000e+04 1.778279410038922776e+02
1.000000000000000000e+04 3.162277660168379612e+02
