# Temperature (K), Pressure (bars)
1.850687926401186587e+03 9.999999999999999547e-07
1.924856368772209862e+03 1.778279410038922901e-06
1.999024811143233364e+03 3.162277660168379191e-06
2.058821226649575692e+03 5.623413251903491208e-06
2.104770375167981456e+03 1.000000000000000082e-05
2.142596468990395806e+03 1.778279410038922901e-05
2.176579478891002509e+03 3.162277660168379530e-05
2.209795216909982628e+03 5.623413251903490700e-05
2.244597244137308280e+03 1.000000000000000048e-04
2.283388946299503914e+03 1.778279410038922698e-04
2.328296711448622318e+03 3.162277660168379394e-04
2.381000764049220379e+03 5.623413251903490971e-04
2.443097578942925793e+03 1.000000000000000021e-03
2.515321869922283895e+03 1.778279410038922752e-03
2.597450317110605283e+03 3.162277660168379394e-03
2.684629369203240913e+03 5.623413251903490971e-03
2.778228965551656984e+03 1.000000000000000021e-02
2.892750124520247937e+03 1.778279410038922925e-02
3.034760848724862626e+03 3.162277660168379134e-02
3.208522384692379092e+03 5.623413251903491145e-02
3.395841594798124333e+03 1.000000000000000056e-01
3.602819931391996761e+03 1.778279410038922925e-01
3.844422715353688545e+03 3.162277660168379412e-01
4.119183138502425209e+03 5.623413251903490728e-01
4.464150641194945820e+03 1.000000000000000000e+00
4.941602769184264616e+03 1.778279410038922759e+00
5.658188771906534384e+03 3.162277660168379523e+00
6.735786696359731650e+03 5.623413251903491172e+00
8.282497759347865212e+03 1.000000000000000000e+01
1.000000000000000000e+04 1.778279410038922848e+01
1.000000000000000000e+04 3.162277660168379256e+01
1.000000000000000000e+04 5.623413251903490817e+01
1.000000000000000000e+04 1.000000000000000000e+02
1.000000000000000000e+04 1.778279410038922776e+02
1.000000000000000000e+04 3.162277660168379612e+02
