# Temperature (K), Pressure (bars)
1.196625764664714097e+03 1.778279410038922901e-06
1.228573742254044191e+03 3.162277660168379191e-06
1.260831928027180993e+03 5.623413251903491208e-06
1.298435722739333414e+03 1.000000000000000082e-05
1.341256890510355788e+03 1.778279410038922901e-05
1.388617238457694157e+03 3.162277660168379530e-05
1.441742319971568122e+03 5.623413251903490700e-05
1.500819777762628974e+03 1.000000000000000048e-04
1.566475261838187180e+03 1.778279410038922698e-04
1.637218473896227351e+03 3.162277660168379394e-04
1.720217634441818063e+03 5.623413251903490971e-04
1.823902141319752900e+03 1.000000000000000021e-03
1.944889207542918939e+03 1.778279410038922752e-03
2.085715395298202566e+03 3.162277660168379394e-03
2.238545208735312372e+03 5.623413251903490971e-03
2.390421441252827663e+03 1.000000000000000021e-02
2.542079367205468316e+03 1.778279410038922925e-02
2.696244082025786611e+03 3.162277660168379134e-02
2.855257762972189994e+03 5.623413251903491145e-02
3.021344147741757297e+03 1.000000000000000056e-01
3.196730664374414573e+03 1.778279410038922925e-01
3.383357951402975687e+03 3.162277660168379412e-01
3.583299340757307618e+03 5.623413251903490728e-01
3.800251247345674528e+03 1.000000000000000000e+00
4.040386578579528759e+03 1.778279410038922759e+00
4.312512670024972977e+03 3.162277660168379523e+00
4.629031887276618363e+03 5.623413251903491172e+00
5.005093787629723010e+03 1.000000000000000000e+01
5.475021907359832767e+03 1.778279410038922848e+01
6.092051913444443926e+03 3.162277660168379256e+01
6.945310539180868545e+03 5.623413251903490817e+01
8.177972411987550913e+03 1.000000000000000000e+02
9.900967002249410143e+03 1.778279410038922776e+02
1.200505483370940237e+04 3.162277660168379612e+02
