# Temperature (K), Pressure (bars)
1.750279841784463770e+03 5.623413251903491208e-06
1.758253062186034867e+03 1.000000000000000082e-05
1.766226285344162534e+03 1.778279410038922901e-05
1.780535751796814338e+03 3.162277660168379530e-05
1.805680614069121020e+03 5.623413251903490700e-05
1.838272731248748869e+03 1.000000000000000048e-04
1.873489503866921950e+03 1.778279410038922698e-04
1.911209636570807106e+03 3.162277660168379394e-04
1.949402883550372735e+03 5.623413251903490971e-04
1.986389711244064301e+03 1.000000000000000021e-03
2.023997319105268389e+03 1.778279410038922752e-03
2.063067904909838035e+03 3.162277660168379394e-03
2.104245342502134918e+03 5.623413251903490971e-03
2.148453904821778906e+03 1.000000000000000021e-02
2.196944993863624859e+03 1.778279410038922925e-02
2.251174470475338239e+03 3.162277660168379134e-02
2.317394086409775355e+03 5.623413251903491145e-02
2.399538959824052654e+03 1.000000000000000056e-01
2.517335841644754055e+03 1.778279410038922925e-01
2.686320618726280372e+03 3.162277660168379412e-01
2.871555340788233480e+03 5.623413251903490728e-01
3.054395043975449425e+03 1.000000000000000000e+00
3.246926975558813865e+03 1.778279410038922759e+00
3.451974418546883498e+03 3.162277660168379523e+00
3.671559197204829161e+03 5.623413251903491172e+00
3.909030026942259155e+03 1.000000000000000000e+01
4.169375064104973717e+03 1.778279410038922848e+01
4.458925030472396429e+03 3.162277660168379256e+01
4.785908881425778418e+03 5.623413251903490817e+01
5.165087306775363686e+03 1.000000000000000000e+02
5.606561832594597035e+03 1.778279410038922776e+02
6.129324089999080570e+03 3.162277660168379612e+02
