# Temperature (K), Pressure (bars)
1.124147958960226333e+03 9.999999999999999547e-07
1.155484107430293989e+03 1.778279410038922901e-06
1.186820255904221085e+03 3.162277660168379191e-06
1.223090988989614971e+03 5.623413251903491208e-06
1.264687125682240548e+03 1.000000000000000082e-05
1.311019187964495586e+03 1.778279410038922901e-05
1.361327447960475183e+03 3.162277660168379530e-05
1.416554028872933031e+03 5.623413251903490700e-05
1.477131596823992822e+03 1.000000000000000048e-04
1.544666372395447979e+03 1.778279410038922698e-04
1.619734173131292209e+03 3.162277660168379394e-04
1.708091179776782155e+03 5.623413251903490971e-04
1.818227060963262829e+03 1.000000000000000021e-03
1.950672066337331216e+03 1.778279410038922752e-03
2.104252927204083790e+03 3.162277660168379394e-03
2.265918316213465005e+03 5.623413251903490971e-03
2.424306600368161980e+03 1.000000000000000021e-02
2.581808463634167310e+03 1.778279410038922925e-02
2.741305280244207552e+03 3.162277660168379134e-02
2.905401348187305302e+03 5.623413251903491145e-02
3.076614716542304450e+03 1.000000000000000056e-01
3.257231244160759616e+03 1.778279410038922925e-01
3.449157897287300784e+03 3.162277660168379412e-01
3.655452982685795178e+03 5.623413251903490728e-01
3.881447547754916741e+03 1.000000000000000000e+00
4.135209690491183210e+03 1.778279410038922759e+00
4.427978180200971110e+03 3.162277660168379523e+00
4.770714175368632823e+03 5.623413251903491172e+00
5.196843652705704699e+03 1.000000000000000000e+01
5.755214889482762374e+03 1.778279410038922848e+01
6.532125502743210745e+03 3.162277660168379256e+01
7.662467497421213011e+03 5.623413251903490817e+01
9.281582330427685520e+03 1.000000000000000000e+02
1.130080384193718783e+04 1.778279410038922776e+02
1.370457124829580243e+04 3.162277660168379612e+02
