# Temperature (K), Pressure (bars)
2.226932028051400266e+03 9.999999999999999547e-07
2.245267474114127708e+03 1.778279410038922901e-06
2.263602920176854695e+03 3.162277660168379191e-06
2.289289080197086150e+03 5.623413251903491208e-06
2.317712690517116243e+03 1.000000000000000082e-05
2.346911220319073436e+03 1.778279410038922901e-05
2.376460384809519837e+03 3.162277660168379530e-05
2.404029269266863594e+03 5.623413251903490700e-05
2.426651761338655888e+03 1.000000000000000048e-04
2.442507717739160398e+03 1.778279410038922698e-04
2.455442630710555022e+03 3.162277660168379394e-04
2.472935211802804133e+03 5.623413251903490971e-04
2.500516727021440602e+03 1.000000000000000021e-03
2.540511299416827114e+03 1.778279410038922752e-03
2.590545767941580380e+03 3.162277660168379394e-03
2.647037152949977099e+03 5.623413251903490971e-03
2.699088867217133156e+03 1.000000000000000021e-02
2.760073791358160634e+03 1.778279410038922925e-02
2.864433024482611017e+03 3.162277660168379134e-02
2.999469713570211297e+03 5.623413251903491145e-02
3.146791387816515453e+03 1.000000000000000056e-01
3.313533020136657797e+03 1.778279410038922925e-01
3.504104977186560973e+03 3.162277660168379412e-01
3.722116288952464856e+03 5.623413251903490728e-01
3.971013971831575418e+03 1.000000000000000000e+00
4.259017537997086038e+03 1.778279410038922759e+00
4.578027646521393763e+03 3.162277660168379523e+00
4.975656251637188689e+03 5.623413251903491172e+00
5.502181555577914878e+03 1.000000000000000000e+01
6.261038560103333111e+03 1.778279410038922848e+01
7.418330052055078340e+03 3.162277660168379256e+01
9.047937888308026231e+03 5.623413251903490817e+01
1.000000000000000000e+04 1.000000000000000000e+02
1.000000000000000000e+04 1.778279410038922776e+02
1.000000000000000000e+04 3.162277660168379612e+02
