# Temperature (K), Pressure (bars)
2.255306323124975734e+03 9.999999999999999547e-07
2.267212945447155562e+03 1.778279410038922901e-06
2.279119567769334935e+03 3.162277660168379191e-06
2.309055654860462255e+03 5.623413251903491208e-06
2.342476374596755704e+03 1.000000000000000082e-05
2.378153979343310766e+03 1.778279410038922901e-05
2.420220804892888737e+03 3.162277660168379530e-05
2.466578059923553155e+03 5.623413251903490700e-05
2.516444841748332692e+03 1.000000000000000048e-04
2.567496117378050712e+03 1.778279410038922698e-04
2.617983629613872836e+03 3.162277660168379394e-04
2.666022847286264096e+03 5.623413251903490971e-04
2.709768719808147125e+03 1.000000000000000021e-03
2.748277748407301715e+03 1.778279410038922752e-03
2.783243695763918822e+03 3.162277660168379394e-03
2.818820927555087110e+03 5.623413251903490971e-03
2.862002182297600029e+03 1.000000000000000021e-02
2.916265948084200318e+03 1.778279410038922925e-02
2.990068722113404874e+03 3.162277660168379134e-02
3.100879251969081452e+03 5.623413251903491145e-02
3.246973382724627299e+03 1.000000000000000056e-01
3.418999283554255271e+03 1.778279410038922925e-01
3.612056878958315792e+03 3.162277660168379412e-01
3.831122505022643963e+03 5.623413251903490728e-01
4.087008382684125536e+03 1.000000000000000000e+00
4.383666477490749458e+03 1.778279410038922759e+00
4.745926213837283285e+03 3.162277660168379523e+00
5.220719776857950819e+03 5.623413251903491172e+00
5.891848891055493368e+03 1.000000000000000000e+01
6.905941242727763893e+03 1.778279410038922848e+01
8.405943081710318438e+03 3.162277660168379256e+01
1.000000000000000000e+04 5.623413251903490817e+01
1.000000000000000000e+04 1.000000000000000000e+02
1.000000000000000000e+04 1.778279410038922776e+02
1.000000000000000000e+04 3.162277660168379612e+02
