# Temperature (K), Pressure (bars)
1.111059675878381086e+03 9.999999999999999547e-07
1.143128562954842891e+03 1.778279410038922901e-06
1.175197450054031378e+03 3.162277660168379191e-06
1.212854521772797398e+03 5.623413251903491208e-06
1.256205044643532801e+03 1.000000000000000082e-05
1.304141562265362609e+03 1.778279410038922901e-05
1.356537538297498941e+03 3.162277660168379530e-05
1.415666041921550004e+03 5.623413251903490700e-05
1.480504504492491151e+03 1.000000000000000048e-04
1.552780060637451925e+03 1.778279410038922698e-04
1.639161984702719565e+03 3.162277660168379394e-04
1.735488066510705949e+03 5.623413251903490971e-04
1.834157553430292865e+03 1.000000000000000021e-03
1.946635227236274886e+03 1.778279410038922752e-03
2.089109868207806358e+03 3.162277660168379394e-03
2.248293313456484611e+03 5.623413251903490971e-03
2.406987278471752688e+03 1.000000000000000021e-02
2.565413494904263189e+03 1.778279410038922925e-02
2.725992133089846448e+03 3.162277660168379134e-02
2.891165897645070800e+03 5.623413251903491145e-02
3.063249460974664544e+03 1.000000000000000056e-01
3.244079474771449895e+03 1.778279410038922925e-01
3.435328061168980639e+03 3.162277660168379412e-01
3.639898574775498673e+03 5.623413251903490728e-01
3.863447360219198345e+03 1.000000000000000000e+00
4.113522629674280324e+03 1.778279410038922759e+00
4.400988215379077701e+03 3.162277660168379523e+00
4.736640200522586383e+03 5.623413251903491172e+00
5.151243093456486349e+03 1.000000000000000000e+01
5.689356038518188143e+03 1.778279410038922848e+01
6.435084460639907775e+03 3.162277660168379256e+01
7.534923511538805542e+03 5.623413251903490817e+01
9.112898633967377464e+03 1.000000000000000000e+02
1.109457501190604125e+04 1.778279410038922776e+02
1.345905738927188759e+04 3.162277660168379612e+02
