# Temperature (K), Pressure (bars)
9.737953462214586580e+02 1.778279410038922901e-05
1.023754899649988147e+03 3.162277660168379530e-05
1.073733762567784424e+03 5.623413251903490700e-05
1.121031011342995043e+03 1.000000000000000048e-04
1.165477122793011858e+03 1.778279410038922698e-04
1.210767870675500035e+03 3.162277660168379394e-04
1.260004501283192894e+03 5.623413251903490971e-04
1.315783398120187485e+03 1.000000000000000021e-03
1.382802260040456076e+03 1.778279410038922752e-03
1.468348151691099929e+03 3.162277660168379394e-03
1.567835307066912264e+03 5.623413251903490971e-03
1.674535679054239608e+03 1.000000000000000021e-02
1.799825495314310047e+03 1.778279410038922925e-02
1.931395730258577487e+03 3.162277660168379134e-02
2.079756831655994574e+03 5.623413251903491145e-02
2.277825220067436931e+03 1.000000000000000056e-01
2.485664241450248483e+03 1.778279410038922925e-01
2.675130459340686684e+03 3.162277660168379412e-01
2.862197686093642915e+03 5.623413251903490728e-01
3.052024060716199529e+03 1.000000000000000000e+00
3.247640188528780527e+03 1.778279410038922759e+00
3.452129196049987968e+03 3.162277660168379523e+00
3.669573660183228640e+03 5.623413251903491172e+00
3.904804946233085502e+03 1.000000000000000000e+01
4.163165973119106638e+03 1.778279410038922848e+01
4.450887940199957484e+03 3.162277660168379256e+01
4.776084626679126814e+03 5.623413251903490817e+01
5.153686641317263820e+03 1.000000000000000000e+02
5.592802820857419647e+03 1.778279410038922776e+02
6.111609506014578983e+03 3.162277660168379612e+02
