# Temperature (K), Pressure (bars)
9.718911471096685091e+02 5.623413251903490971e-04
1.023392424068521336e+03 1.000000000000000021e-03
1.074893702934562498e+03 1.778279410038922752e-03
1.125371912051312847e+03 3.162277660168379394e-03
1.172693703156200854e+03 5.623413251903490971e-03
1.217864518359716840e+03 1.000000000000000021e-02
1.264020390188575220e+03 1.778279410038922925e-02
1.316447300296541698e+03 3.162277660168379134e-02
1.381670695652063614e+03 5.623413251903491145e-02
1.463566142679514087e+03 1.000000000000000056e-01
1.560568019356814148e+03 1.778279410038922925e-01
1.672304616847265834e+03 3.162277660168379412e-01
1.797210277763321983e+03 5.623413251903490728e-01
1.933149040425539624e+03 1.000000000000000000e+00
2.088674684433837683e+03 1.778279410038922759e+00
2.302806645584635135e+03 3.162277660168379523e+00
2.587148700653959168e+03 5.623413251903491172e+00
2.879811236475915848e+03 1.000000000000000000e+01
3.154199610747020415e+03 1.778279410038922848e+01
3.431342173820041353e+03 3.162277660168379256e+01
3.719575668710739137e+03 5.623413251903490817e+01
4.026636069302391206e+03 1.000000000000000000e+02
4.356588714943690320e+03 1.778279410038922776e+02
4.725095404008142395e+03 3.162277660168379612e+02
