# Temperature (K), Pressure (bars)
1.189217127791736630e+03 3.162277660168379394e-04
1.237444981521613727e+03 5.623413251903490971e-04
1.285672837939611554e+03 1.000000000000000021e-03
1.335602102624780400e+03 1.778279410038922752e-03
1.389101739951575382e+03 3.162277660168379394e-03
1.449293893469822024e+03 5.623413251903490971e-03
1.512546705233357443e+03 1.000000000000000021e-02
1.582620316809991209e+03 1.778279410038922925e-02
1.668171468827930767e+03 3.162277660168379134e-02
1.754464973265173057e+03 5.623413251903491145e-02
1.834991303196757144e+03 1.000000000000000056e-01
1.924012756637388293e+03 1.778279410038922925e-01
2.033562944913240472e+03 3.162277660168379412e-01
2.169712518290550634e+03 5.623413251903490728e-01
2.356778166330527711e+03 1.000000000000000000e+00
2.600963001306982278e+03 1.778279410038922759e+00
2.851859330781609060e+03 3.162277660168379523e+00
3.088883113119092741e+03 5.623413251903491172e+00
3.328445795154596453e+03 1.000000000000000000e+01
3.577330924866082114e+03 1.778279410038922848e+01
3.842878074850470512e+03 3.162277660168379256e+01
4.131075318617024095e+03 5.623413251903490817e+01
4.448762225108811435e+03 1.000000000000000000e+02
4.799205762767499436e+03 1.778279410038922776e+02
5.201069477323861065e+03 3.162277660168379612e+02
