# Temperature (K), Pressure (bars)
2.558422169841228424e+03 1.778279410038922901e-06
2.561466294491358440e+03 3.162277660168379191e-06
2.565317082724121974e+03 5.623413251903491208e-06
2.575033254119973208e+03 1.000000000000000082e-05
2.597593076659254621e+03 1.778279410038922901e-05
2.628337613650029198e+03 3.162277660168379530e-05
2.661988467292822406e+03 5.623413251903490700e-05
2.697716949190569721e+03 1.000000000000000048e-04
2.735011342215439981e+03 1.778279410038922698e-04
2.773889164022361001e+03 3.162277660168379394e-04
2.814100920315304393e+03 5.623413251903490971e-04
2.854986299233696172e+03 1.000000000000000021e-03
2.894424196302852579e+03 1.778279410038922752e-03
2.928637766333659783e+03 3.162277660168379394e-03
2.953273235819732236e+03 5.623413251903490971e-03
2.970347934001074464e+03 1.000000000000000021e-02
2.989824405010087958e+03 1.778279410038922925e-02
3.025394282924787149e+03 3.162277660168379134e-02
3.079305891938455716e+03 5.623413251903491145e-02
3.162119961788449928e+03 1.000000000000000056e-01
3.295564036296294034e+03 1.778279410038922925e-01
3.465450423246822538e+03 3.162277660168379412e-01
3.656619719938189064e+03 5.623413251903490728e-01
3.877502163601423945e+03 1.000000000000000000e+00
4.135957462094374932e+03 1.778279410038922759e+00
4.442052478891416285e+03 3.162277660168379523e+00
4.790317360184410063e+03 5.623413251903491172e+00
5.226159115442399525e+03 1.000000000000000000e+01
5.804160635591885693e+03 1.778279410038922848e+01
6.632094927108186312e+03 3.162277660168379256e+01
7.869548254559494126e+03 5.623413251903490817e+01
9.578899973999612484e+03 1.000000000000000000e+02
1.166815890718094670e+04 1.778279410038922776e+02
1.415635940352243233e+04 3.162277660168379612e+02
