# Temperature (K), Pressure (bars)
9.659338194256665702e+02 1.000000000000000082e-05
1.015270846817902907e+03 1.778279410038922901e-05
1.064727163017344537e+03 3.162277660168379530e-05
1.113008767680279107e+03 5.623413251903490700e-05
1.159728597991012975e+03 1.000000000000000048e-04
1.206957539040803113e+03 1.778279410038922698e-04
1.258721377627625088e+03 3.162277660168379394e-04
1.320055575724119080e+03 5.623413251903490971e-04
1.397058899139775122e+03 1.000000000000000021e-03
1.483419842463875511e+03 1.778279410038922752e-03
1.571560890453611592e+03 3.162277660168379394e-03
1.669528310103623426e+03 5.623413251903490971e-03
1.768237394644214874e+03 1.000000000000000021e-02
1.864589818267028477e+03 1.778279410038922925e-02
1.968301468260223828e+03 3.162277660168379134e-02
2.105772171675785103e+03 5.623413251903491145e-02
2.299762985704186576e+03 1.000000000000000056e-01
2.504257125883489152e+03 1.778279410038922925e-01
2.691475646670685364e+03 3.162277660168379412e-01
2.877428207273300814e+03 5.623413251903490728e-01
3.066827041474405178e+03 1.000000000000000000e+00
3.262245642991102613e+03 1.778279410038922759e+00
3.466704470686629520e+03 3.162277660168379523e+00
3.684413915961552448e+03 5.623413251903491172e+00
3.920261591774507906e+03 1.000000000000000000e+01
4.179637936619213178e+03 1.778279410038922848e+01
4.468842276176487758e+03 3.162277660168379256e+01
4.796129230654938510e+03 5.623413251903490817e+01
5.176705976991073840e+03 1.000000000000000000e+02
5.620015486589607463e+03 1.778279410038922776e+02
6.145153886880782011e+03 3.162277660168379612e+02
