# Temperature (K), Pressure (bars)
9.039422598632781956e+02 1.000000000000000048e-04
9.502001031655070165e+02 1.778279410038922698e-04
9.964579487667731428e+02 3.162277660168379394e-04
1.043323254337312619e+03 5.623413251903490971e-04
1.091463273770395517e+03 1.000000000000000021e-03
1.141275986987955775e+03 1.778279410038922752e-03
1.193165337222295420e+03 3.162277660168379394e-03
1.247467948780781626e+03 5.623413251903490971e-03
1.305117465783746638e+03 1.000000000000000021e-02
1.370758441160339089e+03 1.778279410038922925e-02
1.451883653201157358e+03 3.162277660168379134e-02
1.555577963798044266e+03 5.623413251903491145e-02
1.687883071002725274e+03 1.000000000000000056e-01
1.848266601431520485e+03 1.778279410038922925e-01
2.052646027670324656e+03 3.162277660168379412e-01
2.303737475199038272e+03 5.623413251903490728e-01
2.554697078070171756e+03 1.000000000000000000e+00
2.785357163232547919e+03 1.778279410038922759e+00
3.009961308741370431e+03 3.162277660168379523e+00
3.235476180630790168e+03 5.623413251903491172e+00
3.467961145717008094e+03 1.000000000000000000e+01
3.713517582413967830e+03 1.778279410038922848e+01
3.980182621943185040e+03 3.162277660168379256e+01
4.273003494077392133e+03 5.623413251903490817e+01
4.598893174694786467e+03 1.000000000000000000e+02
4.961100081795892038e+03 1.778279410038922776e+02
5.380185836442630716e+03 3.162277660168379612e+02
