# Temperature (K), Pressure (bars)
2.373068324475306781e+03 9.999999999999999547e-07
2.394977430979462952e+03 1.778279410038922901e-06
2.416886537483618213e+03 3.162277660168379191e-06
2.444716654722280964e+03 5.623413251903491208e-06
2.473307569933470404e+03 1.000000000000000082e-05
2.502261442341737165e+03 1.778279410038922901e-05
2.532335784495257030e+03 3.162277660168379530e-05
2.562380602714047200e+03 5.623413251903490700e-05
2.592017783539227821e+03 1.000000000000000048e-04
2.619596850682386503e+03 1.778279410038922698e-04
2.642586476492863312e+03 3.162277660168379394e-04
2.659564307513664062e+03 5.623413251903490971e-04
2.673834113285421608e+03 1.000000000000000021e-03
2.693021758228332146e+03 1.778279410038922752e-03
2.724320777763663955e+03 3.162277660168379394e-03
2.770612353865279601e+03 5.623413251903490971e-03
2.833335693402341349e+03 1.000000000000000021e-02
2.913137409311775173e+03 1.778279410038922925e-02
3.016916115634804100e+03 3.162277660168379134e-02
3.151748074585192171e+03 5.623413251903491145e-02
3.309754406752935665e+03 1.000000000000000056e-01
3.489583913460796339e+03 1.778279410038922925e-01
3.689656173595810742e+03 3.162277660168379412e-01
3.924141305235124946e+03 5.623413251903490728e-01
4.206074164220702187e+03 1.000000000000000000e+00
4.540480010043801485e+03 1.778279410038922759e+00
4.981012789658681868e+03 3.162277660168379523e+00
5.617077637785088882e+03 5.623413251903491172e+00
6.608899138371399204e+03 1.000000000000000000e+01
8.080940685975956512e+03 1.778279410038922848e+01
9.883532313867563062e+03 3.162277660168379256e+01
1.000000000000000000e+04 5.623413251903490817e+01
1.000000000000000000e+04 1.000000000000000000e+02
1.000000000000000000e+04 1.778279410038922776e+02
1.000000000000000000e+04 3.162277660168379612e+02
