# Temperature (K), Pressure (bars)
9.814000756835969241e+02 1.778279410038922901e-06
1.022917376556816180e+03 3.162277660168379191e-06
1.064337013001597825e+03 5.623413251903491208e-06
1.107714675848772004e+03 1.000000000000000082e-05
1.153942214155890497e+03 1.778279410038922901e-05
1.203517124395661540e+03 3.162277660168379530e-05
1.256690386159401896e+03 5.623413251903490700e-05
1.313332615442885981e+03 1.000000000000000048e-04
1.374486769879233407e+03 1.778279410038922698e-04
1.442752203067335358e+03 3.162277660168379394e-04
1.525004084783993676e+03 5.623413251903490971e-04
1.624839807154692380e+03 1.000000000000000021e-03
1.751481102894744936e+03 1.778279410038922752e-03
1.921605263170687522e+03 3.162277660168379394e-03
2.118363504900033149e+03 5.623413251903490971e-03
2.309688019413933944e+03 1.000000000000000021e-02
2.489439542762722340e+03 1.778279410038922925e-02
2.663440121845686463e+03 3.162277660168379134e-02
2.836026680408081575e+03 5.623413251903491145e-02
3.010255857448793904e+03 1.000000000000000056e-01
3.188381738459090229e+03 1.778279410038922925e-01
3.372938803242544964e+03 3.162277660168379412e-01
3.567973739603461127e+03 5.623413251903490728e-01
3.778942056089913876e+03 1.000000000000000000e+00
4.012320761461364782e+03 1.778279410038922759e+00
4.276170423657960782e+03 3.162277660168379523e+00
4.581560203070906027e+03 5.623413251903491172e+00
4.943927711966122843e+03 1.000000000000000000e+01
5.390876198202906380e+03 1.778279410038922848e+01
5.965394798565220299e+03 3.162277660168379256e+01
6.738327915112184201e+03 5.623413251903490817e+01
7.831243942910161422e+03 1.000000000000000000e+02
9.400324450227653870e+03 1.778279410038922776e+02
1.137772414487633250e+04 3.162277660168379612e+02
