# Temperature (K), Pressure (bars)
2.152763694641487291e+03 9.999999999999999547e-07
2.178489035346986384e+03 1.778279410038922901e-06
2.204214376052484567e+03 3.162277660168379191e-06
2.230956546905777486e+03 5.623413251903491208e-06
2.259902375426480830e+03 1.000000000000000082e-05
2.290151803265324361e+03 1.778279410038922901e-05
2.320233910010680574e+03 3.162277660168379530e-05
2.347681742176159332e+03 5.623413251903490700e-05
2.370634385954218942e+03 1.000000000000000048e-04
2.390988382561678463e+03 1.778279410038922698e-04
2.413039607846046692e+03 3.162277660168379394e-04
2.440933887861964649e+03 5.623413251903490971e-04
2.477051743948665262e+03 1.000000000000000021e-03
2.523040748788508608e+03 1.778279410038922752e-03
2.579336005767847382e+03 3.162277660168379394e-03
2.646720612189041731e+03 5.623413251903490971e-03
2.720352653465573894e+03 1.000000000000000021e-02
2.804626798764563318e+03 1.778279410038922925e-02
2.917284621862085260e+03 3.162277660168379134e-02
3.055092574902124397e+03 5.623413251903491145e-02
3.211174669768372951e+03 1.000000000000000056e-01
3.391152217192018270e+03 1.778279410038922925e-01
3.600805050035580734e+03 3.162277660168379412e-01
3.821169369683869263e+03 5.623413251903490728e-01
4.074225984604029236e+03 1.000000000000000000e+00
4.373495627872148361e+03 1.778279410038922759e+00
4.732229068326846573e+03 3.162277660168379523e+00
5.202484306692702376e+03 5.623413251903491172e+00
5.874957803389929722e+03 1.000000000000000000e+01
6.916980008568775702e+03 1.778279410038922848e+01
8.435667326819420850e+03 3.162277660168379256e+01
1.000000000000000000e+04 5.623413251903490817e+01
1.000000000000000000e+04 1.000000000000000000e+02
1.000000000000000000e+04 1.778279410038922776e+02
1.000000000000000000e+04 3.162277660168379612e+02
