# Temperature (K), Pressure (bars)
2.234459965123963229e+03 9.999999999999999547e-07
2.259561923686391310e+03 1.778279410038922901e-06
2.284663882248819391e+03 3.162277660168379191e-06
2.311834116284576339e+03 5.623413251903491208e-06
2.341594008349537035e+03 1.000000000000000082e-05
2.373821295406004992e+03 1.778279410038922901e-05
2.407835792855534237e+03 3.162277660168379530e-05
2.442318342774784014e+03 5.623413251903490700e-05
2.475044371661062087e+03 1.000000000000000048e-04
2.503046094447344331e+03 1.778279410038922698e-04
2.525357865631696768e+03 3.162277660168379394e-04
2.545061795206733677e+03 5.623413251903490971e-04
2.567761796070188211e+03 1.000000000000000021e-03
2.598360549595122393e+03 1.778279410038922752e-03
2.639611775563797437e+03 3.162277660168379394e-03
2.692944245565076017e+03 5.623413251903490971e-03
2.759900557299477441e+03 1.000000000000000021e-02
2.841312376584983213e+03 1.778279410038922925e-02
2.943290639114712121e+03 3.162277660168379134e-02
3.072210582248302671e+03 5.623413251903491145e-02
3.223359451059021467e+03 1.000000000000000056e-01
3.395776968002323429e+03 1.778279410038922925e-01
3.597176072227110126e+03 3.162277660168379412e-01
3.822000076375912613e+03 5.623413251903490728e-01
4.085232181460279207e+03 1.000000000000000000e+00
4.382814164230414463e+03 1.778279410038922759e+00
4.745196467006795501e+03 3.162277660168379523e+00
5.221714503695854546e+03 5.623413251903491172e+00
5.903721241695653589e+03 1.000000000000000000e+01
6.956908277030451245e+03 1.778279410038922848e+01
8.486882779800738717e+03 3.162277660168379256e+01
1.000000000000000000e+04 5.623413251903490817e+01
1.000000000000000000e+04 1.000000000000000000e+02
1.000000000000000000e+04 1.778279410038922776e+02
1.000000000000000000e+04 3.162277660168379612e+02
