# Temperature (K), Pressure (bars)
5.542837101703319604e+03 9.999999999999999547e-07
6.711751831998278249e+03 1.778279410038922901e-06
8.120461354484211370e+03 3.162277660168379191e-06
9.725088987409824767e+03 5.623413251903491208e-06
1.142787819802520607e+04 1.000000000000000082e-05
1.309782845092537900e+04 1.778279410038922901e-05
1.462190563383733752e+04 3.162277660168379530e-05
1.595151272007728403e+04 5.623413251903490700e-05
1.710080519155258662e+04 1.000000000000000048e-04
1.811803906723263208e+04 1.778279410038922698e-04
1.905547728023590753e+04 3.162277660168379394e-04
1.995709304169270399e+04 5.623413251903490971e-04
2.085796601287454178e+04 1.000000000000000021e-03
2.178480750505859032e+04 1.778279410038922752e-03
2.276223114615322265e+04 3.162277660168379394e-03
2.381557513791918609e+04 5.623413251903490971e-03
2.497329381760300748e+04 1.000000000000000021e-02
2.627149771093316667e+04 1.778279410038922925e-02
2.775578604729683138e+04 3.162277660168379134e-02
2.948602416876142888e+04 5.623413251903491145e-02
3.154252093703222272e+04 1.000000000000000056e-01
3.402832134277865407e+04 1.778279410038922925e-01
3.708055379410984460e+04 3.162277660168379412e-01
4.087346429165053269e+04 5.623413251903490728e-01
4.563598712466323923e+04 1.000000000000000000e+00
5.164962906184231542e+04 1.778279410038922759e+00
5.928036701859300956e+04 3.162277660168379523e+00
6.897272777940357628e+04 5.623413251903491172e+00
8.128728518489137059e+04 1.000000000000000000e+01
9.689539636314930976e+04 1.778279410038922848e+01
1.166014566102806129e+05 3.162277660168379256e+01
1.413051114004174306e+05 5.623413251903490817e+01
1.719557397262612940e+05 1.000000000000000000e+02
2.093760019129751308e+05 1.778279410038922776e+02
2.540245651841653453e+05 3.162277660168379612e+02
