# Temperature (K), Pressure (bars)
8.839668562199445887e+02 3.162277660168379394e-04
9.377692223052841882e+02 5.623413251903490971e-04
9.915715896981736250e+02 1.000000000000000021e-03
1.043929648718905810e+03 1.778279410038922752e-03
1.095708654663490961e+03 3.162277660168379394e-03
1.149280286415008050e+03 5.623413251903490971e-03
1.207586555999684606e+03 1.000000000000000021e-02
1.274953541478540046e+03 1.778279410038922925e-02
1.356782332897072820e+03 3.162277660168379134e-02
1.467375204267464369e+03 5.623413251903491145e-02
1.643243914489497229e+03 1.000000000000000056e-01
1.889284022877302732e+03 1.778279410038922925e-01
2.153157513463084797e+03 3.162277660168379412e-01
2.402061297683877456e+03 5.623413251903490728e-01
2.635986659279357355e+03 1.000000000000000000e+00
2.858588632288407098e+03 1.778279410038922759e+00
3.076783051042958959e+03 3.162277660168379523e+00
3.297585448678024022e+03 5.623413251903491172e+00
3.527410526323740669e+03 1.000000000000000000e+01
3.772196138503928523e+03 1.778279410038922848e+01
4.040069022060565203e+03 3.162277660168379256e+01
4.335510481643836101e+03 5.623413251903490817e+01
4.665572824062864129e+03 1.000000000000000000e+02
5.033798577067159385e+03 1.778279410038922776e+02
5.460997534207986064e+03 3.162277660168379612e+02
