# Temperature (K), Pressure (bars)
9.005707424257276443e+02 5.623413251903490700e-05
9.569179591310831938e+02 1.000000000000000048e-04
1.013265175700147097e+03 1.778279410038922698e-04
1.067387573000789416e+03 3.162277660168379394e-04
1.125420460991766959e+03 5.623413251903490971e-04
1.185369063497398884e+03 1.000000000000000021e-03
1.237710055585793043e+03 1.778279410038922752e-03
1.280617842950373642e+03 3.162277660168379394e-03
1.321963828307503491e+03 5.623413251903490971e-03
1.368256071105195133e+03 1.000000000000000021e-02
1.451858875587488228e+03 1.778279410038922925e-02
1.609446183162793204e+03 3.162277660168379134e-02
1.802107905568564320e+03 5.623413251903491145e-02
1.972119234826670436e+03 1.000000000000000056e-01
2.150654766851944260e+03 1.778279410038922925e-01
2.374513379243430791e+03 3.162277660168379412e-01
2.601365583703774973e+03 5.623413251903490728e-01
2.809696994126510617e+03 1.000000000000000000e+00
3.016286375671325914e+03 1.778279410038922759e+00
3.226634862398356745e+03 3.162277660168379523e+00
3.444825214787787445e+03 5.623413251903491172e+00
3.675566582235509486e+03 1.000000000000000000e+01
3.924260662980881079e+03 1.778279410038922848e+01
4.198668427799814708e+03 3.162277660168379256e+01
4.504377612161682919e+03 5.623413251903490817e+01
4.849102982172209522e+03 1.000000000000000000e+02
5.236657242572302493e+03 1.778279410038922776e+02
5.690390338155923928e+03 3.162277660168379612e+02
