# Temperature (K), Pressure (bars)
1.057842559223504168e+03 1.000000000000000082e-05
1.127011058861668516e+03 1.778279410038922901e-05
1.196179564724666761e+03 3.162277660168379530e-05
1.279818888448603047e+03 5.623413251903490700e-05
1.415786410262146774e+03 1.000000000000000048e-04
1.543081050685845184e+03 1.778279410038922698e-04
1.618404607831678277e+03 3.162277660168379394e-04
1.672389948979159499e+03 5.623413251903490971e-04
1.722463820923732101e+03 1.000000000000000021e-03
1.771473645215280385e+03 1.778279410038922752e-03
1.815159866229721047e+03 3.162277660168379394e-03
1.850072910417726916e+03 5.623413251903490971e-03
1.882182077287969832e+03 1.000000000000000021e-02
1.915741307104955013e+03 1.778279410038922925e-02
1.953374600489697968e+03 3.162277660168379134e-02
1.997168657977116482e+03 5.623413251903491145e-02
2.055682230739300849e+03 1.000000000000000056e-01
2.126788185271107068e+03 1.778279410038922925e-01
2.235114411692785325e+03 3.162277660168379412e-01
2.423684505278473807e+03 5.623413251903490728e-01
2.649936592457648203e+03 1.000000000000000000e+00
2.868817936868677407e+03 1.778279410038922759e+00
3.087540898234840824e+03 3.162277660168379523e+00
3.310678626311458174e+03 5.623413251903491172e+00
3.542860705706694262e+03 1.000000000000000000e+01
3.789610639458122478e+03 1.778279410038922848e+01
4.058500819394460905e+03 3.162277660168379256e+01
4.355274377803022617e+03 5.623413251903490817e+01
4.687184696783993786e+03 1.000000000000000000e+02
5.057549523323454196e+03 1.778279410038922776e+02
5.488195781721191452e+03 3.162277660168379612e+02
