# Temperature (K), Pressure (bars)
2.261528768559871423e+03 9.999999999999999547e-07
2.282671541260697268e+03 1.778279410038922901e-06
2.303814313961523567e+03 3.162277660168379191e-06
2.326209377990235680e+03 5.623413251903491208e-06
2.350037801372105605e+03 1.000000000000000082e-05
2.375212295325842661e+03 1.778279410038922901e-05
2.401768933728429147e+03 3.162277660168379530e-05
2.429066358993093672e+03 5.623413251903490700e-05
2.455614565586877234e+03 1.000000000000000048e-04
2.479384801430861899e+03 1.778279410038922698e-04
2.499446983543445185e+03 3.162277660168379394e-04
2.517628797216200837e+03 5.623413251903490971e-04
2.537678593086065575e+03 1.000000000000000021e-03
2.563260785992871661e+03 1.778279410038922752e-03
2.596995691750629703e+03 3.162277660168379394e-03
2.640654703730142955e+03 5.623413251903490971e-03
2.696310579668411719e+03 1.000000000000000021e-02
2.766947538924259334e+03 1.778279410038922925e-02
2.862253313308842280e+03 3.162277660168379134e-02
2.987211173033557770e+03 5.623413251903491145e-02
3.130973947718747695e+03 1.000000000000000056e-01
3.289572889335511718e+03 1.778279410038922925e-01
3.469029861762548080e+03 3.162277660168379412e-01
3.673719312266563065e+03 5.623413251903490728e-01
3.907822251034833698e+03 1.000000000000000000e+00
4.176937908888337915e+03 1.778279410038922759e+00
4.492103722175698749e+03 3.162277660168379523e+00
4.856696939827650567e+03 5.623413251903491172e+00
5.320397808811303548e+03 1.000000000000000000e+01
5.947857034888321323e+03 1.778279410038922848e+01
6.862954144815466861e+03 3.162277660168379256e+01
8.231419298628492470e+03 5.623413251903490817e+01
1.000000000000000000e+04 1.000000000000000000e+02
1.000000000000000000e+04 1.778279410038922776e+02
1.000000000000000000e+04 3.162277660168379612e+02
