# Temperature (K), Pressure (bars)
9.788805968001173596e+02 3.162277660168379394e-04
1.040737892313957218e+03 5.623413251903490971e-04
1.102595188588789142e+03 1.000000000000000021e-03
1.159586731074083218e+03 1.778279410038922752e-03
1.207903189965880983e+03 3.162277660168379394e-03
1.246179328726025233e+03 5.623413251903490971e-03
1.279672924283347584e+03 1.000000000000000021e-02
1.313308198858319656e+03 1.778279410038922925e-02
1.348987084088808842e+03 3.162277660168379134e-02
1.390146460722090524e+03 5.623413251903491145e-02
1.437450115315454241e+03 1.000000000000000056e-01
1.487933196276793524e+03 1.778279410038922925e-01
1.557402091614170104e+03 3.162277660168379412e-01
1.669986534871992717e+03 5.623413251903490728e-01
1.835256550073961307e+03 1.000000000000000000e+00
2.068973791813620664e+03 1.778279410038922759e+00
2.355609579292971375e+03 3.162277660168379523e+00
2.643835591925521840e+03 5.623413251903491172e+00
2.917678018827305550e+03 1.000000000000000000e+01
3.187562741813008870e+03 1.778279410038922848e+01
3.462554353811011424e+03 3.162277660168379256e+01
3.749810486978309200e+03 5.623413251903490817e+01
4.056844177095419582e+03 1.000000000000000000e+02
4.387832107469406765e+03 1.778279410038922776e+02
4.757999989406069290e+03 3.162277660168379612e+02
