# Temperature (K), Pressure (bars)
2.310082360304573740e+03 9.999999999999999547e-07
2.334024503220006409e+03 1.778279410038922901e-06
2.357966646135439987e+03 3.162277660168379191e-06
2.383596246952889487e+03 5.623413251903491208e-06
2.411595257386365120e+03 1.000000000000000082e-05
2.440586899581050147e+03 1.778279410038922901e-05
2.470236326289250428e+03 3.162277660168379530e-05
2.500219406660538880e+03 5.623413251903490700e-05
2.528841714201350442e+03 1.000000000000000048e-04
2.553546662885967635e+03 1.778279410038922698e-04
2.570863704947561018e+03 3.162277660168379394e-04
2.580462831848739370e+03 5.623413251903490971e-04
2.588921776248583228e+03 1.000000000000000021e-03
2.605085210090376677e+03 1.778279410038922752e-03
2.633732304304289300e+03 3.162277660168379394e-03
2.674878827617592833e+03 5.623413251903490971e-03
2.729289694865473848e+03 1.000000000000000021e-02
2.796293260200073746e+03 1.778279410038922925e-02
2.881679065387542778e+03 3.162277660168379134e-02
2.997237294575890246e+03 5.623413251903491145e-02
3.137067487763279587e+03 1.000000000000000056e-01
3.293687552851783948e+03 1.778279410038922925e-01
3.471385088193198044e+03 3.162277660168379412e-01
3.674904857045655262e+03 5.623413251903490728e-01
3.908809544965752139e+03 1.000000000000000000e+00
4.178680890531599289e+03 1.778279410038922759e+00
4.495363274199455191e+03 3.162277660168379523e+00
4.861138237606768598e+03 5.623413251903491172e+00
5.327755119586658111e+03 1.000000000000000000e+01
5.964421642230673569e+03 1.778279410038922848e+01
6.905238334342161579e+03 3.162277660168379256e+01
8.303628165991072819e+03 5.623413251903490817e+01
1.013632781957104635e+04 1.000000000000000000e+02
1.234132179456567064e+04 1.778279410038922776e+02
1.497234108092252245e+04 3.162277660168379612e+02
