# Temperature (K), Pressure (bars)
1.266845310008544857e+03 9.999999999999999547e-07
1.290631766332824554e+03 1.778279410038922901e-06
1.314418222664291307e+03 3.162277660168379191e-06
1.342456264766693266e+03 5.623413251903491208e-06
1.375320578001906142e+03 1.000000000000000082e-05
1.413977142955823183e+03 1.778279410038922901e-05
1.460265513360373234e+03 3.162277660168379530e-05
1.520550389612350045e+03 5.623413251903490700e-05
1.592022801487695233e+03 1.000000000000000048e-04
1.661879286001344099e+03 1.778279410038922698e-04
1.727692684472267956e+03 3.162277660168379394e-04
1.794191942905447377e+03 5.623413251903490971e-04
1.864428071955006999e+03 1.000000000000000021e-03
1.940500031653262340e+03 1.778279410038922752e-03
2.025742780626989315e+03 3.162277660168379394e-03
2.133355999738668743e+03 5.623413251903490971e-03
2.269032680470084870e+03 1.000000000000000021e-02
2.415389148513718283e+03 1.778279410038922925e-02
2.562354714825170049e+03 3.162277660168379134e-02
2.713362050013472071e+03 5.623413251903491145e-02
2.870689437830190400e+03 1.000000000000000056e-01
3.036487020394045430e+03 1.778279410038922925e-01
3.212380494281932897e+03 3.162277660168379412e-01
3.399242901454662388e+03 5.623413251903490728e-01
3.598559537167137023e+03 1.000000000000000000e+00
3.813919760661156033e+03 1.778279410038922759e+00
4.050823927672001446e+03 3.162277660168379523e+00
4.316287487192083972e+03 5.623413251903491172e+00
4.619578717045947997e+03 1.000000000000000000e+01
4.974599647050839849e+03 1.778279410038922848e+01
5.400237086772378461e+03 3.162277660168379256e+01
5.925773630654533918e+03 5.623413251903490817e+01
6.600405928242410482e+03 1.000000000000000000e+02
7.508757245941869769e+03 1.778279410038922776e+02
8.777536095273793762e+03 3.162277660168379612e+02
