# Temperature (K), Pressure (bars)
2.330795102168370704e+03 9.999999999999999547e-07
2.353775984574978793e+03 1.778279410038922901e-06
2.376756866981585972e+03 3.162277660168379191e-06
2.403036442620594244e+03 5.623413251903491208e-06
2.432369628477744300e+03 1.000000000000000082e-05
2.464012989966971418e+03 1.778279410038922901e-05
2.496701971112425326e+03 3.162277660168379530e-05
2.529382780987928982e+03 5.623413251903490700e-05
2.560798592995814033e+03 1.000000000000000048e-04
2.588325110541888534e+03 1.778279410038922698e-04
2.605637069811627953e+03 3.162277660168379394e-04
2.609169588546295472e+03 5.623413251903490971e-04
2.610441485360455317e+03 1.000000000000000021e-03
2.626406836342864153e+03 1.778279410038922752e-03
2.663286687579192403e+03 3.162277660168379394e-03
2.717191813639537941e+03 5.623413251903490971e-03
2.784551550817716816e+03 1.000000000000000021e-02
2.857950395256590127e+03 1.778279410038922925e-02
2.939936582580594859e+03 3.162277660168379134e-02
3.051591912045892514e+03 5.623413251903491145e-02
3.194258182543929252e+03 1.000000000000000056e-01
3.358589259816185859e+03 1.778279410038922925e-01
3.548019763426736063e+03 3.162277660168379412e-01
3.768509873365237581e+03 5.623413251903490728e-01
4.026357186095221550e+03 1.000000000000000000e+00
4.332643618351258738e+03 1.778279410038922759e+00
4.676636286277079307e+03 3.162277660168379523e+00
5.119310509141557304e+03 5.623413251903491172e+00
5.736025398587878044e+03 1.000000000000000000e+01
6.674591938914547427e+03 1.778279410038922848e+01
8.081580831357627176e+03 3.162277660168379256e+01
9.889406157910107140e+03 5.623413251903490817e+01
1.000000000000000000e+04 1.000000000000000000e+02
1.000000000000000000e+04 1.778279410038922776e+02
1.000000000000000000e+04 3.162277660168379612e+02
