# Temperature (K), Pressure (bars)
1.553702205940698605e+03 9.999999999999999547e-07
1.581347668257250916e+03 1.778279410038922901e-06
1.608993130573803228e+03 3.162277660168379191e-06
1.641764428014609621e+03 5.623413251903491208e-06
1.681260354945717609e+03 1.000000000000000082e-05
1.727994560175229026e+03 1.778279410038922901e-05
1.780546664853796301e+03 3.162277660168379530e-05
1.838609704615091687e+03 5.623413251903490700e-05
1.901407783834666816e+03 1.000000000000000048e-04
1.968282697575152042e+03 1.778279410038922698e-04
2.040463622558749876e+03 3.162277660168379394e-04
2.120490919217772444e+03 5.623413251903490971e-04
2.213760350413986998e+03 1.000000000000000021e-03
2.320906274692695206e+03 1.778279410038922752e-03
2.436678882996706307e+03 3.162277660168379394e-03
2.558718362349737617e+03 5.623413251903490971e-03
2.688243001135708255e+03 1.000000000000000021e-02
2.827392243583212348e+03 1.778279410038922925e-02
2.978971220173325491e+03 3.162277660168379134e-02
3.146758232188219154e+03 5.623413251903491145e-02
3.339489132129311201e+03 1.000000000000000056e-01
3.530106376563312551e+03 1.778279410038922925e-01
3.748387136646497311e+03 3.162277660168379412e-01
4.003089143961321042e+03 5.623413251903490728e-01
4.297025764209748559e+03 1.000000000000000000e+00
4.674373134511318312e+03 1.778279410038922759e+00
5.204660393839605604e+03 3.162277660168379523e+00
6.033767817633025516e+03 5.623413251903491172e+00
7.327792991737846023e+03 1.000000000000000000e+01
9.013535932765249527e+03 1.778279410038922848e+01
1.000000000000000000e+04 3.162277660168379256e+01
1.000000000000000000e+04 5.623413251903490817e+01
1.000000000000000000e+04 1.000000000000000000e+02
1.000000000000000000e+04 1.778279410038922776e+02
1.000000000000000000e+04 3.162277660168379612e+02
