# Temperature (K), Pressure (bars)
2.286930747629511188e+03 9.999999999999999547e-07
2.302196133715747237e+03 1.778279410038922901e-06
2.317461519801983741e+03 3.162277660168379191e-06
2.342976889436487454e+03 5.623413251903491208e-06
2.373029835734483640e+03 1.000000000000000082e-05
2.402889981438917857e+03 1.778279410038922901e-05
2.433237393480693299e+03 3.162277660168379530e-05
2.462887348296599612e+03 5.623413251903490700e-05
2.488224844272380778e+03 1.000000000000000048e-04
2.502576530924653071e+03 1.778279410038922698e-04
2.506102442439504102e+03 3.162277660168379394e-04
2.512396504809692942e+03 5.623413251903490971e-04
2.534208845792442844e+03 1.000000000000000021e-03
2.574817743075493581e+03 1.778279410038922752e-03
2.629690558224974211e+03 3.162277660168379394e-03
2.691200697078121721e+03 5.623413251903490971e-03
2.744243455247947168e+03 1.000000000000000021e-02
2.799194699505570043e+03 1.778279410038922925e-02
2.894154180766338868e+03 3.162277660168379134e-02
3.024696396554970306e+03 5.623413251903491145e-02
3.171434331638096410e+03 1.000000000000000056e-01
3.337470282147050511e+03 1.778279410038922925e-01
3.527967236196131580e+03 3.162277660168379412e-01
3.748284643165041416e+03 5.623413251903490728e-01
4.003419278837837737e+03 1.000000000000000000e+00
4.302944136969552346e+03 1.778279410038922759e+00
4.636411176192466883e+03 3.162277660168379523e+00
5.059892418110310246e+03 5.623413251903491172e+00
5.637551253494982120e+03 1.000000000000000000e+01
6.499745843784473436e+03 1.778279410038922848e+01
7.810160458809368720e+03 3.162277660168379256e+01
9.559884040030428878e+03 5.623413251903490817e+01
1.000000000000000000e+04 1.000000000000000000e+02
1.000000000000000000e+04 1.778279410038922776e+02
1.000000000000000000e+04 3.162277660168379612e+02
