# Temperature (K), Pressure (bars)
2.342855435508589835e+03 9.999999999999999547e-07
2.359037321974305996e+03 1.778279410038922901e-06
2.375219208440953935e+03 3.162277660168379191e-06
2.395768759726876397e+03 5.623413251903491208e-06
2.419114477383976009e+03 1.000000000000000082e-05
2.442718486896350896e+03 1.778279410038922901e-05
2.465711517981269481e+03 3.162277660168379530e-05
2.486773935882254591e+03 5.623413251903490700e-05
2.503398199356214263e+03 1.000000000000000048e-04
2.512524578108649621e+03 1.778279410038922698e-04
2.514414252784668861e+03 3.162277660168379394e-04
2.515387412407909324e+03 5.623413251903490971e-04
2.522919206211634446e+03 1.000000000000000021e-03
2.539958221707398479e+03 1.778279410038922752e-03
2.566596843794294728e+03 3.162277660168379394e-03
2.602213227709592502e+03 5.623413251903490971e-03
2.648164376868116506e+03 1.000000000000000021e-02
2.704240672397105300e+03 1.778279410038922925e-02
2.778294160027414364e+03 3.162277660168379134e-02
2.885150640291025411e+03 5.623413251903491145e-02
3.017981204628914384e+03 1.000000000000000056e-01
3.165277041767937135e+03 1.778279410038922925e-01
3.328541788026760514e+03 3.162277660168379412e-01
3.511053477725375615e+03 5.623413251903490728e-01
3.716441489210675172e+03 1.000000000000000000e+00
3.947972812603879447e+03 1.778279410038922759e+00
4.209881297088155407e+03 3.162277660168379523e+00
4.509613526649235610e+03 5.623413251903491172e+00
4.853575733962483355e+03 1.000000000000000000e+01
5.271026604749363287e+03 1.778279410038922848e+01
5.796863811180419361e+03 3.162277660168379256e+01
6.493663374776742785e+03 5.623413251903490817e+01
7.473696599548539780e+03 1.000000000000000000e+02
8.882417857615657340e+03 1.778279410038922776e+02
1.072510071222430452e+04 3.162277660168379612e+02
