# Temperature (K), Pressure (bars)
1.238449387569186001e+03 9.999999999999999547e-07
1.296507714081986478e+03 1.778279410038922901e-06
1.354566040596007497e+03 3.162277660168379191e-06
1.404931005908380939e+03 5.623413251903491208e-06
1.450212874971178280e+03 1.000000000000000082e-05
1.494759279421748488e+03 1.778279410038922901e-05
1.550403168673655045e+03 3.162277660168379530e-05
1.634185655702945041e+03 5.623413251903490700e-05
1.719073896634838775e+03 1.000000000000000048e-04
1.782302086494008108e+03 1.778279410038922698e-04
1.841051300811401688e+03 3.162277660168379394e-04
1.902737424671723602e+03 5.623413251903490971e-04
1.964863434528953348e+03 1.000000000000000021e-03
2.031016978379758484e+03 1.778279410038922752e-03
2.102186006986521988e+03 3.162277660168379394e-03
2.187106541929372725e+03 5.623413251903490971e-03
2.301006863425934625e+03 1.000000000000000021e-02
2.434436882252958185e+03 1.778279410038922925e-02
2.573436526680162387e+03 3.162277660168379134e-02
2.718409208677543575e+03 5.623413251903491145e-02
2.871036752520841674e+03 1.000000000000000056e-01
3.033213877658298770e+03 1.778279410038922925e-01
3.206748133959571987e+03 3.162277660168379412e-01
3.392927371723853867e+03 5.623413251903490728e-01
3.592957372909773767e+03 1.000000000000000000e+00
3.809468378104909789e+03 1.778279410038922759e+00
4.047283844207110633e+03 3.162277660168379523e+00
4.313264323061182949e+03 5.623413251903491172e+00
4.616588723430701975e+03 1.000000000000000000e+01
4.970495889020192408e+03 1.778279410038922848e+01
5.394069234716823303e+03 3.162277660168379256e+01
5.914839305926654561e+03 5.623413251903490817e+01
6.574947358874690508e+03 1.000000000000000000e+02
7.444801477673181580e+03 1.778279410038922776e+02
8.647793363411286919e+03 3.162277660168379612e+02
