# Temperature (K), Pressure (bars)
1.279945874973059063e+03 3.162277660168379530e-05
1.313687002539774767e+03 5.623413251903490700e-05
1.347428132392148200e+03 1.000000000000000048e-04
1.382910946385712123e+03 1.778279410038922698e-04
1.423799971213829394e+03 3.162277660168379394e-04
1.467950065815878133e+03 5.623413251903490971e-04
1.523564686891713109e+03 1.000000000000000021e-03
1.602702252484906921e+03 1.778279410038922752e-03
1.682894709609460733e+03 3.162277660168379394e-03
1.748500224356851049e+03 5.623413251903490971e-03
1.811967176976352448e+03 1.000000000000000021e-02
1.879194401075764063e+03 1.778279410038922925e-02
1.950677504000672570e+03 3.162277660168379134e-02
2.034875692897870977e+03 5.623413251903491145e-02
2.133405845882239646e+03 1.000000000000000056e-01
2.265648284233633603e+03 1.778279410038922925e-01
2.455213055631322732e+03 3.162277660168379412e-01
2.663274602153971955e+03 5.623413251903490728e-01
2.861557959253692388e+03 1.000000000000000000e+00
3.061904751837528238e+03 1.778279410038922759e+00
3.269200912570080618e+03 3.162277660168379523e+00
3.486751459764503579e+03 5.623413251903491172e+00
3.718286358161345106e+03 1.000000000000000000e+01
3.968708057005565024e+03 1.778279410038922848e+01
4.245470293602113088e+03 3.162277660168379256e+01
4.554645146295571067e+03 5.623413251903490817e+01
4.904367838629787002e+03 1.000000000000000000e+02
5.298542607168625182e+03 1.778279410038922776e+02
5.762748521277785585e+03 3.162277660168379612e+02
