# Temperature (K), Pressure (bars)
9.456126153424523864e+02 1.000000000000000021e-03
9.880963834164504078e+02 1.778279410038922752e-03
1.030580152600294468e+03 3.162277660168379394e-03
1.073366056935714141e+03 5.623413251903490971e-03
1.117328650234423776e+03 1.000000000000000021e-02
1.162974905210644920e+03 1.778279410038922925e-02
1.211249701265648582e+03 3.162277660168379134e-02
1.263778378337280401e+03 5.623413251903491145e-02
1.322555579815400733e+03 1.000000000000000056e-01
1.399453698742204779e+03 1.778279410038922925e-01
1.529478358312961291e+03 3.162277660168379412e-01
1.723028527201346378e+03 5.623413251903490728e-01
1.963289950580820232e+03 1.000000000000000000e+00
2.239688991998938945e+03 1.778279410038922759e+00
2.520924491988451337e+03 3.162277660168379523e+00
2.788143280743517607e+03 5.623413251903491172e+00
3.049100086522759739e+03 1.000000000000000000e+01
3.310014625961766797e+03 1.778279410038922848e+01
3.579968692332364299e+03 3.162277660168379256e+01
3.865599580841417719e+03 5.623413251903490817e+01
4.174069515884069915e+03 1.000000000000000000e+02
4.509166078068589741e+03 1.778279410038922776e+02
4.886990813416194214e+03 3.162277660168379612e+02
