# Temperature (K), Pressure (bars)
2.331598484780797662e+03 9.999999999999999547e-07
2.347280270493946773e+03 1.778279410038922901e-06
2.362962056207152727e+03 3.162277660168379191e-06
2.385271978916701300e+03 5.623413251903491208e-06
2.411045246040494021e+03 1.000000000000000082e-05
2.437595665219188049e+03 1.778279410038922901e-05
2.464782641513755152e+03 3.162277660168379530e-05
2.491265552931435195e+03 5.623413251903490700e-05
2.515326340515030097e+03 1.000000000000000048e-04
2.534160778592916358e+03 1.778279410038922698e-04
2.545077415200544692e+03 3.162277660168379394e-04
2.550033614833516367e+03 5.623413251903490971e-04
2.556016366583018680e+03 1.000000000000000021e-03
2.569314127426515824e+03 1.778279410038922752e-03
2.592588655563957218e+03 3.162277660168379394e-03
2.625860082280905772e+03 5.623413251903490971e-03
2.669593804048572565e+03 1.000000000000000021e-02
2.723862845220809049e+03 1.778279410038922925e-02
2.794363249624330820e+03 3.162277660168379134e-02
2.895353626871759843e+03 5.623413251903491145e-02
3.026316964690248824e+03 1.000000000000000056e-01
3.174719568309135866e+03 1.778279410038922925e-01
3.338656982373867322e+03 3.162277660168379412e-01
3.522563780300900362e+03 5.623413251903490728e-01
3.730054211282606957e+03 1.000000000000000000e+00
3.964317789768437251e+03 1.778279410038922759e+00
4.229610566108808598e+03 3.162277660168379523e+00
4.534087967708047472e+03 5.623413251903491172e+00
4.884504569802505102e+03 1.000000000000000000e+01
5.312180447076939345e+03 1.778279410038922848e+01
5.855966359715304861e+03 3.162277660168379256e+01
6.587055135314386462e+03 5.623413251903490817e+01
7.628792573269632157e+03 1.000000000000000000e+02
9.120942177954168073e+03 1.778279410038922776e+02
1.102998183868992601e+04 3.162277660168379612e+02
