# Temperature (K), Pressure (bars)
1.221532104088821825e+03 1.778279410038922901e-05
1.264059820967325322e+03 3.162277660168379530e-05
1.306587540722598760e+03 5.623413251903490700e-05
1.350289652574264437e+03 1.000000000000000048e-04
1.396454871496060150e+03 1.778279410038922698e-04
1.448203046048697388e+03 3.162277660168379394e-04
1.507429094846156886e+03 5.623413251903490971e-04
1.573948374880611027e+03 1.000000000000000021e-03
1.653208823707094098e+03 1.778279410038922752e-03
1.743790593709269615e+03 3.162277660168379394e-03
1.832212602322384782e+03 5.623413251903490971e-03
1.914417836044814067e+03 1.000000000000000021e-02
2.001393400357544351e+03 1.778279410038922925e-02
2.100694774330875134e+03 3.162277660168379134e-02
2.233059086848626066e+03 5.623413251903491145e-02
2.410185946882460939e+03 1.000000000000000056e-01
2.595019674841991218e+03 1.778279410038922925e-01
2.770097799350402056e+03 3.162277660168379412e-01
2.948104545339993820e+03 5.623413251903490728e-01
3.133000229710357871e+03 1.000000000000000000e+00
3.327274028032092701e+03 1.778279410038922759e+00
3.533201777773296726e+03 3.162277660168379523e+00
3.754017432003508020e+03 5.623413251903491172e+00
3.994265899079437986e+03 1.000000000000000000e+01
4.259518092468884788e+03 1.778279410038922848e+01
4.556519253228058005e+03 3.162277660168379256e+01
4.894202296029238823e+03 5.623413251903490817e+01
5.288605149103447729e+03 1.000000000000000000e+02
5.751153831547493610e+03 1.778279410038922776e+02
6.303445395812579591e+03 3.162277660168379612e+02
