# Temperature (K), Pressure (bars)
8.442299536355936880e+02 9.999999999999999547e-07
8.653395843694659106e+02 1.778279410038922901e-06
8.864492151083885574e+02 3.162277660168379191e-06
9.129906052373337388e+02 5.623413251903491208e-06
9.432043442155538742e+02 1.000000000000000082e-05
9.760263830796342290e+02 1.778279410038922901e-05
1.012641536457252414e+03 3.162277660168379530e-05
1.052772362641594100e+03 5.623413251903490700e-05
1.096461137764914838e+03 1.000000000000000048e-04
1.143883864312996138e+03 1.778279410038922698e-04
1.194870689986754769e+03 3.162277660168379394e-04
1.249589526286541286e+03 5.623413251903490971e-04
1.308109610460361182e+03 1.000000000000000021e-03
1.374735276355411770e+03 1.778279410038922752e-03
1.455844951017986659e+03 3.162277660168379394e-03
1.559578312415073242e+03 5.623413251903490971e-03
1.686636001542520717e+03 1.000000000000000021e-02
1.841785434572481336e+03 1.778279410038922925e-02
2.036911124855020716e+03 3.162277660168379134e-02
2.247357262055578758e+03 5.623413251903491145e-02
2.445438704561781378e+03 1.000000000000000056e-01
2.632906341882878678e+03 1.778279410038922925e-01
2.815564638182871477e+03 3.162277660168379412e-01
2.997877307426587777e+03 5.623413251903490728e-01
3.183317772587301079e+03 1.000000000000000000e+00
3.375734815499068191e+03 1.778279410038922759e+00
3.579609503327129914e+03 3.162277660168379523e+00
3.799580612240971277e+03 5.623413251903491172e+00
4.040545062827872243e+03 1.000000000000000000e+01
4.308144457745067484e+03 1.778279410038922848e+01
4.609290850882307495e+03 3.162277660168379256e+01
4.953331342270390451e+03 5.623413251903490817e+01
5.357261000794193023e+03 1.000000000000000000e+02
5.833151993590435268e+03 1.778279410038922776e+02
6.404866785621071358e+03 3.162277660168379612e+02
