# Temperature (K), Pressure (bars)
1.436671803977024638e+03 3.162277660168379394e-04
1.488828077639700268e+03 5.623413251903490971e-04
1.540984354382108449e+03 1.000000000000000021e-03
1.592610794375370915e+03 1.778279410038922752e-03
1.642478077027712516e+03 3.162277660168379394e-03
1.688449588707119347e+03 5.623413251903490971e-03
1.732895238858608536e+03 1.000000000000000021e-02
1.779037817247570729e+03 1.778279410038922925e-02
1.817124753970953407e+03 3.162277660168379134e-02
1.844074033461931322e+03 5.623413251903491145e-02
1.870656524642853128e+03 1.000000000000000056e-01
1.904590559066077049e+03 1.778279410038922925e-01
1.949421387359019946e+03 3.162277660168379412e-01
2.009352484141388913e+03 5.623413251903490728e-01
2.086524314973377386e+03 1.000000000000000000e+00
2.197006580769788343e+03 1.778279410038922759e+00
2.393400641435022862e+03 3.162277660168379523e+00
2.672524474637048115e+03 5.623413251903491172e+00
2.957866601915218780e+03 1.000000000000000000e+01
3.226927794540724790e+03 1.778279410038922848e+01
3.500744265673858536e+03 3.162277660168379256e+01
3.787732457493113088e+03 5.623413251903490817e+01
4.095303788275572060e+03 1.000000000000000000e+02
4.427306043235073957e+03 1.778279410038922776e+02
4.799702832457965087e+03 3.162277660168379612e+02
