# Temperature (K), Pressure (bars)
1.131262689210322151e+03 9.999999999999999547e-07
1.154631863952404274e+03 1.778279410038922901e-06
1.178001038701417201e+03 3.162277660168379191e-06
1.207962891367051725e+03 5.623413251903491208e-06
1.244212144668640121e+03 1.000000000000000082e-05
1.286254784786797245e+03 1.778279410038922901e-05
1.334130434450772100e+03 3.162277660168379530e-05
1.386850214837814292e+03 5.623413251903490700e-05
1.446261378901640228e+03 1.000000000000000048e-04
1.511231930757593545e+03 1.778279410038922698e-04
1.584391380360583298e+03 3.162277660168379394e-04
1.673626519056395409e+03 5.623413251903490971e-04
1.772378104889512315e+03 1.000000000000000021e-03
1.872234130833857989e+03 1.778279410038922752e-03
1.989727582225035576e+03 3.162277660168379394e-03
2.139434263154343626e+03 5.623413251903490971e-03
2.301003203892822057e+03 1.000000000000000021e-02
2.458531144988965934e+03 1.778279410038922925e-02
2.615979484233891526e+03 3.162277660168379134e-02
2.776063475973458935e+03 5.623413251903491145e-02
2.941205572039358231e+03 1.000000000000000056e-01
3.113521527486285322e+03 1.778279410038922925e-01
3.294563982850342654e+03 3.162277660168379412e-01
3.486008098587440600e+03 5.623413251903490728e-01
3.691113858850523684e+03 1.000000000000000000e+00
3.915079335314669152e+03 1.778279410038922759e+00
4.164635791964998134e+03 3.162277660168379523e+00
4.448473922716070774e+03 5.623413251903491172e+00
4.778873580140553713e+03 1.000000000000000000e+01
5.174089163565755371e+03 1.778279410038922848e+01
5.663362826624651461e+03 3.162277660168379256e+01
6.295571036937194549e+03 5.623413251903490817e+01
7.156145554945221193e+03 1.000000000000000000e+02
8.382962126230133435e+03 1.778279410038922776e+02
1.007875124973026868e+04 3.162277660168379612e+02
