# Temperature (K), Pressure (bars)
2.235309700790489842e+03 9.999999999999999547e-07
2.258147892786418197e+03 1.778279410038922901e-06
2.280986084782345642e+03 3.162277660168379191e-06
2.308878225812636174e+03 5.623413251903491208e-06
2.337861937483128713e+03 1.000000000000000082e-05
2.368444303106481129e+03 1.778279410038922901e-05
2.401665633639124735e+03 3.162277660168379530e-05
2.436218561466724168e+03 5.623413251903490700e-05
2.471294854913513973e+03 1.000000000000000048e-04
2.504195384133055995e+03 1.778279410038922698e-04
2.531960550459126353e+03 3.162277660168379394e-04
2.554084095064962185e+03 5.623413251903490971e-04
2.574046450160337372e+03 1.000000000000000021e-03
2.597318927890262785e+03 1.778279410038922752e-03
2.628571621896507168e+03 3.162277660168379394e-03
2.669807149808980284e+03 5.623413251903490971e-03
2.723511530273946846e+03 1.000000000000000021e-02
2.788207296963457338e+03 1.778279410038922925e-02
2.868945881249240301e+03 3.162277660168379134e-02
2.981073617958534214e+03 5.623413251903491145e-02
3.120588828892879064e+03 1.000000000000000056e-01
3.278632978629721947e+03 1.778279410038922925e-01
3.458670768536050673e+03 3.162277660168379412e-01
3.664329466195821624e+03 5.623413251903490728e-01
3.898684864708920031e+03 1.000000000000000000e+00
4.166673396651005532e+03 1.778279410038922759e+00
4.479086943332902592e+03 3.162277660168379523e+00
4.839472908856001595e+03 5.623413251903491172e+00
5.296163974196630079e+03 1.000000000000000000e+01
5.913360572108325869e+03 1.778279410038922848e+01
6.816496369348697954e+03 3.162277660168379256e+01
8.165057515573505952e+03 5.623413251903490817e+01
9.963265065577781570e+03 1.000000000000000000e+02
1.213118371635417316e+04 1.778279410038922776e+02
1.471682792627331401e+04 3.162277660168379612e+02
