# Temperature (K), Pressure (bars)
8.771660970249760112e+02 1.000000000000000021e-03
9.184022198546746267e+02 1.778279410038922752e-03
9.596383436114887218e+02 3.162277660168379394e-03
1.000794821052666634e+03 5.623413251903490971e-03
1.042451187186234392e+03 1.000000000000000021e-02
1.085041234950907210e+03 1.778279410038922925e-02
1.128946388316167941e+03 3.162277660168379134e-02
1.175470837744882829e+03 5.623413251903491145e-02
1.227498606340696369e+03 1.000000000000000056e-01
1.288580370655532761e+03 1.778279410038922925e-01
1.365370053795209287e+03 3.162277660168379412e-01
1.477130791883465918e+03 5.623413251903490728e-01
1.631065765532043088e+03 1.000000000000000000e+00
1.834508240302520562e+03 1.778279410038922759e+00
2.099667127342611366e+03 3.162277660168379523e+00
2.392759105258982345e+03 5.623413251903491172e+00
2.682759138259531028e+03 1.000000000000000000e+01
2.969743360837093405e+03 1.778279410038922848e+01
3.257703037635282271e+03 3.162277660168379256e+01
3.551770159232907645e+03 5.623413251903490817e+01
3.859889414063753975e+03 1.000000000000000000e+02
4.187090948001875404e+03 1.778279410038922776e+02
4.547996487325308408e+03 3.162277660168379612e+02
