# Temperature (K), Pressure (bars)
1.784690142576893322e+03 1.778279410038922901e-05
1.789825573376532702e+03 3.162277660168379530e-05
1.794961006488141948e+03 5.623413251903490700e-05
1.807210172441115674e+03 1.000000000000000048e-04
1.825715596600778554e+03 1.778279410038922698e-04
1.847137214896044497e+03 3.162277660168379394e-04
1.871560824728140233e+03 5.623413251903490971e-04
1.900623928503615844e+03 1.000000000000000021e-03
1.933632978780326084e+03 1.778279410038922752e-03
1.969092264642071314e+03 3.162277660168379394e-03
2.007421889766442519e+03 5.623413251903490971e-03
2.049259402614042756e+03 1.000000000000000021e-02
2.093986537038382721e+03 1.778279410038922925e-02
2.143000481439909436e+03 3.162277660168379134e-02
2.195844988273448962e+03 5.623413251903491145e-02
2.261170210339800178e+03 1.000000000000000056e-01
2.338620524696256325e+03 1.778279410038922925e-01
2.455334812851367133e+03 3.162277660168379412e-01
2.648313179836824929e+03 5.623413251903490728e-01
2.862456857478923212e+03 1.000000000000000000e+00
3.062041618207180363e+03 1.778279410038922759e+00
3.268343219995825166e+03 3.162277660168379523e+00
3.486218793844804622e+03 5.623413251903491172e+00
3.718671747187672736e+03 1.000000000000000000e+01
3.969950897794865796e+03 1.778279410038922848e+01
4.246977433609466971e+03 3.162277660168379256e+01
4.556399513865362678e+03 5.623413251903490817e+01
4.906459983777482194e+03 1.000000000000000000e+02
5.300844309028287171e+03 1.778279410038922776e+02
5.765627154529892323e+03 3.162277660168379612e+02
