# Temperature (K), Pressure (bars)
1.090099706942405646e+03 3.162277660168379394e-04
1.138282701243755355e+03 5.623413251903490971e-04
1.186465697587220575e+03 1.000000000000000021e-03
1.235140180832903752e+03 1.778279410038922752e-03
1.284849547921116255e+03 3.162277660168379394e-03
1.337505287791617775e+03 5.623413251903490971e-03
1.394923767637354103e+03 1.000000000000000021e-02
1.461399957082071978e+03 1.778279410038922925e-02
1.536526899122338591e+03 3.162277660168379134e-02
1.622561057203927703e+03 5.623413251903491145e-02
1.729221583888196847e+03 1.000000000000000056e-01
1.853469934727281725e+03 1.778279410038922925e-01
1.986431347254475213e+03 3.162277660168379412e-01
2.153507006706588982e+03 5.623413251903490728e-01
2.381276814414457476e+03 1.000000000000000000e+00
2.630424700443871188e+03 1.778279410038922759e+00
2.868364053061513914e+03 3.162277660168379523e+00
3.103514872844445563e+03 5.623413251903491172e+00
3.342210038083589097e+03 1.000000000000000000e+01
3.590430068810299872e+03 1.778279410038922848e+01
3.855847966450873173e+03 3.162277660168379256e+01
4.144284486830874812e+03 5.623413251903490817e+01
4.462533347619240885e+03 1.000000000000000000e+02
4.813755986472233417e+03 1.778279410038922776e+02
5.216945123014058481e+03 3.162277660168379612e+02
