# Temperature (K), Pressure (bars)
9.758634046126040857e+02 1.000000000000000021e-03
1.024967939426515841e+03 1.778279410038922752e-03
1.074072475013941812e+03 3.162277660168379394e-03
1.120232988020351286e+03 5.623413251903490971e-03
1.162822310877990503e+03 1.000000000000000021e-02
1.204984829551785879e+03 1.778279410038922925e-02
1.250236110532277962e+03 3.162277660168379134e-02
1.299806381248939260e+03 5.623413251903491145e-02
1.357539967959811520e+03 1.000000000000000056e-01
1.433009862833111356e+03 1.778279410038922925e-01
1.532092928989377015e+03 3.162277660168379412e-01
1.652555936513924053e+03 5.623413251903490728e-01
1.800585203707324354e+03 1.000000000000000000e+00
1.964703370200574909e+03 1.778279410038922759e+00
2.168420867995287608e+03 3.162277660168379523e+00
2.454516465333103042e+03 5.623413251903491172e+00
2.761247164260052159e+03 1.000000000000000000e+01
3.044722642314740369e+03 1.778279410038922848e+01
3.328047658571468219e+03 3.162277660168379256e+01
3.619361794040880795e+03 5.623413251903490817e+01
3.926693779004706357e+03 1.000000000000000000e+02
4.254630773669835435e+03 1.778279410038922776e+02
4.618155392212986044e+03 3.162277660168379612e+02
