# Temperature (K), Pressure (bars)
2.405548881443242863e+03 9.999999999999999547e-07
2.438327130996526648e+03 1.778279410038922901e-06
2.471105380549810434e+03 3.162277660168379191e-06
2.504399326890965767e+03 5.623413251903491208e-06
2.539509857241926511e+03 1.000000000000000082e-05
2.576742906018366284e+03 1.778279410038922901e-05
2.615827149259799626e+03 3.162277660168379530e-05
2.656136298503429771e+03 5.623413251903490700e-05
2.696238320863794343e+03 1.000000000000000048e-04
2.734184426238725791e+03 1.778279410038922698e-04
2.767995852115166599e+03 3.162277660168379394e-04
2.797938545980315212e+03 5.623413251903490971e-04
2.827644120100358123e+03 1.000000000000000021e-03
2.863448690198231361e+03 1.778279410038922752e-03
2.911822861748228206e+03 3.162277660168379394e-03
2.977073455920891320e+03 5.623413251903490971e-03
3.059494382779732405e+03 1.000000000000000021e-02
3.159551621013328713e+03 1.778279410038922925e-02
3.273934564684707766e+03 3.162277660168379134e-02
3.411926594083602140e+03 5.623413251903491145e-02
3.606611709274596251e+03 1.000000000000000056e-01
3.848890455978939372e+03 1.778279410038922925e-01
4.163820773596455183e+03 3.162277660168379412e-01
4.626577274456989471e+03 5.623413251903490728e-01
5.410669363278048877e+03 1.000000000000000000e+00
6.650598878440629960e+03 1.778279410038922759e+00
8.217799947947458350e+03 3.162277660168379523e+00
9.853708830632729587e+03 5.623413251903491172e+00
1.163712494971295200e+04 1.000000000000000000e+01
1.387038212642213330e+04 1.778279410038922848e+01
1.669026718372340838e+04 3.162277660168379256e+01
2.022665937157868757e+04 5.623413251903490817e+01
2.461293891254544724e+04 1.000000000000000000e+02
2.996633637810942673e+04 1.778279410038922776e+02
3.635444239612980164e+04 3.162277660168379612e+02
