# Temperature (K), Pressure (bars)
2.041695031532648727e+03 9.999999999999999547e-07
2.049429464606314468e+03 1.778279410038922901e-06
2.057163897679980437e+03 3.162277660168379191e-06
2.066606243332218583e+03 5.623413251903491208e-06
2.080346526682909825e+03 1.000000000000000082e-05
2.100757821878200048e+03 1.778279410038922901e-05
2.129127404748013760e+03 3.162277660168379530e-05
2.165400549789083016e+03 5.623413251903490700e-05
2.206794123984455837e+03 1.000000000000000048e-04
2.250016546395180285e+03 1.778279410038922698e-04
2.293183113490191317e+03 3.162277660168379394e-04
2.334565944124678936e+03 5.623413251903490971e-04
2.372490833138424023e+03 1.000000000000000021e-03
2.406398277528777271e+03 1.778279410038922752e-03
2.436702600212316611e+03 3.162277660168379394e-03
2.465884714334395539e+03 5.623413251903490971e-03
2.496220400274836265e+03 1.000000000000000021e-02
2.534951959714877376e+03 1.778279410038922925e-02
2.582394470798124530e+03 3.162277660168379134e-02
2.658586819985790498e+03 5.623413251903491145e-02
2.790701929547130931e+03 1.000000000000000056e-01
2.946277447458965980e+03 1.778279410038922925e-01
3.104040635516527345e+03 3.162277660168379412e-01
3.277038858727409206e+03 5.623413251903490728e-01
3.467084290867948766e+03 1.000000000000000000e+00
3.674611305405768690e+03 1.778279410038922759e+00
3.901245519876361868e+03 3.162277660168379523e+00
4.151176122188143381e+03 5.623413251903491172e+00
4.431127458084964019e+03 1.000000000000000000e+01
4.750432955582301474e+03 1.778279410038922848e+01
5.123106641339175439e+03 3.162277660168379256e+01
5.567483229595746707e+03 5.623413251903490817e+01
6.111140939021029226e+03 1.000000000000000000e+02
6.798682606998594565e+03 1.778279410038922776e+02
7.702656416270658156e+03 3.162277660168379612e+02
