# Temperature (K), Pressure (bars)
1.683490818591867082e+03 1.778279410038922901e-05
1.697804768247430047e+03 3.162277660168379530e-05
1.712118720233206886e+03 5.623413251903490700e-05
1.731502286033779683e+03 1.000000000000000048e-04
1.755364870854790524e+03 1.778279410038922698e-04
1.783756040733432428e+03 3.162277660168379394e-04
1.818798288918312664e+03 5.623413251903490971e-04
1.858342092496089663e+03 1.000000000000000021e-03
1.900829860460911505e+03 1.778279410038922752e-03
1.946533597710881395e+03 3.162277660168379394e-03
1.995583551901476085e+03 5.623413251903490971e-03
2.048321369214983861e+03 1.000000000000000021e-02
2.105805418537272089e+03 1.778279410038922925e-02
2.167616713312125739e+03 3.162277660168379134e-02
2.239667939259299601e+03 5.623413251903491145e-02
2.323387997509993056e+03 1.000000000000000056e-01
2.438647507695009608e+03 1.778279410038922925e-01
2.610614699842530626e+03 3.162277660168379412e-01
2.802222824398525518e+03 5.623413251903490728e-01
2.987867233905061312e+03 1.000000000000000000e+00
3.180800685356034592e+03 1.778279410038922759e+00
3.385025054978543722e+03 3.162277660168379523e+00
3.603026082636106821e+03 5.623413251903491172e+00
3.837869224112073425e+03 1.000000000000000000e+01
4.094168562174388626e+03 1.778279410038922848e+01
4.379339121031179275e+03 3.162277660168379256e+01
4.700431637746932211e+03 5.623413251903490817e+01
5.066661183129594065e+03 1.000000000000000000e+02
5.482329011617381184e+03 1.778279410038922776e+02
5.977204037661467737e+03 3.162277660168379612e+02
