# Temperature (K), Pressure (bars)
2.232732137492735546e+03 9.999999999999999547e-07
2.246465192258837760e+03 1.778279410038922901e-06
2.260198247024939519e+03 3.162277660168379191e-06
2.281577875653566480e+03 5.623413251903491208e-06
2.306282564360370998e+03 1.000000000000000082e-05
2.331414757714604548e+03 1.778279410038922901e-05
2.355434502142118617e+03 3.162277660168379530e-05
2.375595341615061898e+03 5.623413251903490700e-05
2.389572221512275974e+03 1.000000000000000048e-04
2.398228720143824376e+03 1.778279410038922698e-04
2.406858942005510016e+03 3.162277660168379394e-04
2.419880396224073138e+03 5.623413251903490971e-04
2.438674061874510699e+03 1.000000000000000021e-03
2.463905434388087542e+03 1.778279410038922752e-03
2.495419879047672111e+03 3.162277660168379394e-03
2.534660188760721212e+03 5.623413251903490971e-03
2.579173693338299017e+03 1.000000000000000021e-02
2.636538807189998352e+03 1.778279410038922925e-02
2.728553044157142722e+03 3.162277660168379134e-02
2.850607128991539412e+03 5.623413251903491145e-02
2.986148249324354765e+03 1.000000000000000056e-01
3.134450034068094737e+03 1.778279410038922925e-01
3.298932221848171139e+03 3.162277660168379412e-01
3.483105096104975019e+03 5.623413251903490728e-01
3.689653397870302797e+03 1.000000000000000000e+00
3.920368878132215741e+03 1.778279410038922759e+00
4.178671515638252458e+03 3.162277660168379523e+00
4.472117887940257788e+03 5.623413251903491172e+00
4.807286350007642795e+03 1.000000000000000000e+01
5.210901202239712802e+03 1.778279410038922848e+01
5.714194432285053153e+03 3.162277660168379256e+01
6.372749435158554661e+03 5.623413251903490817e+01
7.283983338539530450e+03 1.000000000000000000e+02
8.588938974717981182e+03 1.778279410038922776e+02
1.034689518860483440e+04 3.162277660168379612e+02
