# Temperature (K), Pressure (bars)
9.355970098362735143e+02 1.000000000000000082e-05
9.671436982535390143e+02 1.778279410038922901e-05
9.986903886964914818e+02 3.162277660168379530e-05
1.039526771411795835e+03 5.623413251903490700e-05
1.108381403572200270e+03 1.000000000000000048e-04
1.203353863637003769e+03 1.778279410038922698e-04
1.316339819279685116e+03 3.162277660168379394e-04
1.457848007287387418e+03 5.623413251903490971e-04
1.579828798381072602e+03 1.000000000000000021e-03
1.647510411335196750e+03 1.778279410038922752e-03
1.692950963222162954e+03 3.162277660168379394e-03
1.732206556871804651e+03 5.623413251903490971e-03
1.771299952261159433e+03 1.000000000000000021e-02
1.818044408670383746e+03 1.778279410038922925e-02
1.868680853957822364e+03 3.162277660168379134e-02
1.921493033353596502e+03 5.623413251903491145e-02
1.989457226315627850e+03 1.000000000000000056e-01
2.070546327207022841e+03 1.778279410038922925e-01
2.195695800170124130e+03 3.162277660168379412e-01
2.410011148641370710e+03 5.623413251903490728e-01
2.651711621880452640e+03 1.000000000000000000e+00
2.872982189156639379e+03 1.778279410038922759e+00
3.092020537782799693e+03 3.162277660168379523e+00
3.314688535017211507e+03 5.623413251903491172e+00
3.546260756147410575e+03 1.000000000000000000e+01
3.792594400645081350e+03 1.778279410038922848e+01
4.061420845171131532e+03 3.162277660168379256e+01
4.358271626603820550e+03 5.623413251903490817e+01
4.690319583112688633e+03 1.000000000000000000e+02
5.060753115039240583e+03 1.778279410038922776e+02
5.491712075969046964e+03 3.162277660168379612e+02
