# Temperature (K), Pressure (bars)
9.814425188203607604e+02 1.000000000000000048e-04
1.029851386260866775e+03 1.778279410038922698e-04
1.078260255503477538e+03 3.162277660168379394e-04
1.126965203475992666e+03 5.623413251903490971e-04
1.176401201360203231e+03 1.000000000000000021e-03
1.228368581042430833e+03 1.778279410038922752e-03
1.282739435325176373e+03 3.162277660168379394e-03
1.339964352998921640e+03 5.623413251903490971e-03
1.401827734905582020e+03 1.000000000000000021e-02
1.474408932914668185e+03 1.778279410038922925e-02
1.567563668700196331e+03 3.162277660168379134e-02
1.691700683938951897e+03 5.623413251903491145e-02
1.850476790717383892e+03 1.000000000000000056e-01
2.051358831522239598e+03 1.778279410038922925e-01
2.290547687132497231e+03 3.162277660168379412e-01
2.526915307253964329e+03 5.623413251903490728e-01
2.743582444273401052e+03 1.000000000000000000e+00
2.954867953358105297e+03 1.778279410038922759e+00
3.167280623097775333e+03 3.162277660168379523e+00
3.385861298354649989e+03 5.623413251903491172e+00
3.615736911295233313e+03 1.000000000000000000e+01
3.862396051686244391e+03 1.778279410038922848e+01
4.133658833176520602e+03 3.162277660168379256e+01
4.434694638890176066e+03 5.623413251903490817e+01
4.772943369965982129e+03 1.000000000000000000e+02
5.152146191363200160e+03 1.778279410038922776e+02
5.594898677141217377e+03 3.162277660168379612e+02
