# Temperature (K), Pressure (bars)
1.596021141912580561e+03 9.999999999999999547e-07
1.618956937310106014e+03 1.778279410038922901e-06
1.641892732708301082e+03 3.162277660168379191e-06
1.669724915863585011e+03 5.623413251903491208e-06
1.705086973205364302e+03 1.000000000000000082e-05
1.746250917362880728e+03 1.778279410038922901e-05
1.791866453459452714e+03 3.162277660168379530e-05
1.842050273968479814e+03 5.623413251903490700e-05
1.895711637447961721e+03 1.000000000000000048e-04
1.952360096215993281e+03 1.778279410038922698e-04
2.012333272376919012e+03 3.162277660168379394e-04
2.076642888439740091e+03 5.623413251903490971e-04
2.145588377102214508e+03 1.000000000000000021e-03
2.225599229626598571e+03 1.778279410038922752e-03
2.325692353098779677e+03 3.162277660168379394e-03
2.439994848866103894e+03 5.623413251903490971e-03
2.561330679242839324e+03 1.000000000000000021e-02
2.690605933777638256e+03 1.778279410038922925e-02
2.828889246168987484e+03 3.162277660168379134e-02
2.977893298498670447e+03 5.623413251903491145e-02
3.140124525932540564e+03 1.000000000000000056e-01
3.318633895406777356e+03 1.778279410038922925e-01
3.516280919109954084e+03 3.162277660168379412e-01
3.735843232347823687e+03 5.623413251903490728e-01
3.982220057283090682e+03 1.000000000000000000e+00
4.265478531240206394e+03 1.778279410038922759e+00
4.586122208462650633e+03 3.162277660168379523e+00
4.986147109534191259e+03 5.623413251903491172e+00
5.515556418060072247e+03 1.000000000000000000e+01
6.267032286782898154e+03 1.778279410038922848e+01
7.396699825396845881e+03 3.162277660168379256e+01
9.012718704985110890e+03 5.623413251903490817e+01
1.100248277126506764e+04 1.000000000000000000e+02
1.339388560270436574e+04 1.778279410038922776e+02
1.624680565380627922e+04 3.162277660168379612e+02
