# Temperature (K), Pressure (bars)
9.246353988526127523e+02 1.000000000000000048e-04
9.824047843716433590e+02 1.778279410038922698e-04
1.040174170491892482e+03 3.162277660168379394e-04
1.091659154066340307e+03 5.623413251903490971e-04
1.132076696755217881e+03 1.000000000000000021e-03
1.164344435629155214e+03 1.778279410038922752e-03
1.194926857468000890e+03 3.162277660168379394e-03
1.225204727256314072e+03 5.623413251903490971e-03
1.255583548296545587e+03 1.000000000000000021e-02
1.288914937965535728e+03 1.778279410038922925e-02
1.325611535566701605e+03 3.162277660168379134e-02
1.365686976793102758e+03 5.623413251903491145e-02
1.408648573189572744e+03 1.000000000000000056e-01
1.464920723178439175e+03 1.778279410038922925e-01
1.560804040948426746e+03 3.162277660168379412e-01
1.694786762727028417e+03 5.623413251903490728e-01
1.885207930736098206e+03 1.000000000000000000e+00
2.156552619978118855e+03 1.778279410038922759e+00
2.449724825739946027e+03 3.162277660168379523e+00
2.724029343181473450e+03 5.623413251903491172e+00
2.990408657680132819e+03 1.000000000000000000e+01
3.254832564665007339e+03 1.778279410038922848e+01
3.526781589526967309e+03 3.162277660168379256e+01
3.812894824514978154e+03 5.623413251903490817e+01
4.120449610786422454e+03 1.000000000000000000e+02
4.453185205116115867e+03 1.778279410038922776e+02
4.827201603986727605e+03 3.162277660168379612e+02
