# Temperature (K), Pressure (bars)
2.350146322512619463e+03 9.999999999999999547e-07
2.366423021770229752e+03 1.778279410038922901e-06
2.382699721027839587e+03 3.162277660168379191e-06
2.404090976222370045e+03 5.623413251903491208e-06
2.435647104478519850e+03 1.000000000000000082e-05
2.467875341530558217e+03 1.778279410038922901e-05
2.498817785245123559e+03 3.162277660168379530e-05
2.535148507745652751e+03 5.623413251903490700e-05
2.577225789670263566e+03 1.000000000000000048e-04
2.624659383915300623e+03 1.778279410038922698e-04
2.676706358976728552e+03 3.162277660168379394e-04
2.731522872933911458e+03 5.623413251903490971e-04
2.787595330417748755e+03 1.000000000000000021e-03
2.843945408266768027e+03 1.778279410038922752e-03
2.901012902971490803e+03 3.162277660168379394e-03
2.962905798588689777e+03 5.623413251903490971e-03
3.026654076752839501e+03 1.000000000000000021e-02
3.085508854721987518e+03 1.778279410038922925e-02
3.120232297177765304e+03 3.162277660168379134e-02
3.168573599799915883e+03 5.623413251903491145e-02
3.306435801434281075e+03 1.000000000000000056e-01
3.501502919059526903e+03 1.778279410038922925e-01
3.719006787750440253e+03 3.162277660168379412e-01
3.990072643938697183e+03 5.623413251903490728e-01
4.279848672292394440e+03 1.000000000000000000e+00
4.647956367897075324e+03 1.778279410038922759e+00
5.157837940705024266e+03 3.162277660168379523e+00
5.947238971539244631e+03 5.623413251903491172e+00
7.186022216436025701e+03 1.000000000000000000e+01
8.838979663241432718e+03 1.778279410038922848e+01
1.000000000000000000e+04 3.162277660168379256e+01
1.000000000000000000e+04 5.623413251903490817e+01
1.000000000000000000e+04 1.000000000000000000e+02
1.000000000000000000e+04 1.778279410038922776e+02
1.000000000000000000e+04 3.162277660168379612e+02
