# Temperature (K), Pressure (bars)
1.051294310851154478e+03 5.623413251903490971e-04
1.085458045519495272e+03 1.000000000000000021e-03
1.119621782587639473e+03 1.778279410038922752e-03
1.156406426049267338e+03 3.162277660168379394e-03
1.197476979635439875e+03 5.623413251903490971e-03
1.242660663068341591e+03 1.000000000000000021e-02
1.290819278093495996e+03 1.778279410038922925e-02
1.341921893876848117e+03 3.162277660168379134e-02
1.398635979074729221e+03 5.623413251903491145e-02
1.464332467660605289e+03 1.000000000000000056e-01
1.543532268950366415e+03 1.778279410038922925e-01
1.643307109044407298e+03 3.162277660168379412e-01
1.765112526444076138e+03 5.623413251903490728e-01
1.905901871407612134e+03 1.000000000000000000e+00
2.075205521042703367e+03 1.778279410038922759e+00
2.303473140750231323e+03 3.162277660168379523e+00
2.586744062823485365e+03 5.623413251903491172e+00
2.873720519263138613e+03 1.000000000000000000e+01
3.147834146293054800e+03 1.778279410038922848e+01
3.425208075291666319e+03 3.162277660168379256e+01
3.713547520576814804e+03 5.623413251903490817e+01
4.020523367243693428e+03 1.000000000000000000e+02
4.350343255597752432e+03 1.778279410038922776e+02
4.718551273739449243e+03 3.162277660168379612e+02
