# Temperature (K), Pressure (bars)
1.007399209086132487e+03 5.623413251903490971e-04
1.063855661133718286e+03 1.000000000000000021e-03
1.120312112979981521e+03 1.778279410038922752e-03
1.166677473432590659e+03 3.162277660168379394e-03
1.200062352289991622e+03 5.623413251903490971e-03
1.224933283964272277e+03 1.000000000000000021e-02
1.248358036867421561e+03 1.778279410038922925e-02
1.275331036771545087e+03 3.162277660168379134e-02
1.307738927853582936e+03 5.623413251903491145e-02
1.347129631748949805e+03 1.000000000000000056e-01
1.395290855942179405e+03 1.778279410038922925e-01
1.452213489997177021e+03 3.162277660168379412e-01
1.524261443177020965e+03 5.623413251903490728e-01
1.630271399903718930e+03 1.000000000000000000e+00
1.772898359053985587e+03 1.778279410038922759e+00
1.975399525690267865e+03 3.162277660168379523e+00
2.260162310352367513e+03 5.623413251903491172e+00
2.569409607522570241e+03 1.000000000000000000e+01
2.864758600838033544e+03 1.778279410038922848e+01
3.160207675474989173e+03 3.162277660168379256e+01
3.459277570145686241e+03 5.623413251903490817e+01
3.769754441427123311e+03 1.000000000000000000e+02
4.097035396810370912e+03 1.778279410038922776e+02
4.455353952286030108e+03 3.162277660168379612e+02
