# Temperature (K), Pressure (bars)
9.752540168840585011e+02 1.000000000000000021e-03
1.026791114167443084e+03 1.778279410038922752e-03
1.078328212919965381e+03 3.162277660168379394e-03
1.128916224844015915e+03 5.623413251903490971e-03
1.179037731954619630e+03 1.000000000000000021e-02
1.230184875999734004e+03 1.778279410038922925e-02
1.283518756737947342e+03 3.162277660168379134e-02
1.341952558112099268e+03 5.623413251903491145e-02
1.410784138641198751e+03 1.000000000000000056e-01
1.501557022840720947e+03 1.778279410038922925e-01
1.636457598631622204e+03 3.162277660168379412e-01
1.814002858381177020e+03 5.623413251903490728e-01
2.034975496778744855e+03 1.000000000000000000e+00
2.307469794406404162e+03 1.778279410038922759e+00
2.587560075834522650e+03 3.162277660168379523e+00
2.848793625442295252e+03 5.623413251903491172e+00
3.104612688959482057e+03 1.000000000000000000e+01
3.362266302860447468e+03 1.778279410038922848e+01
3.630550827185687012e+03 3.162277660168379256e+01
3.915917469493211229e+03 5.623413251903490817e+01
4.225444187991233775e+03 1.000000000000000000e+02
4.562724313943504058e+03 1.778279410038922776e+02
4.944253450940459516e+03 3.162277660168379612e+02
