# Temperature (K), Pressure (bars)
8.005642167805335703e+02 1.000000000000000048e-04
8.405513125594169423e+02 1.778279410038922698e-04
8.805384096708701236e+02 3.162277660168379394e-04
9.208512503048596045e+02 5.623413251903490971e-04
9.615999536917983050e+02 1.000000000000000021e-03
1.003109981795825320e+03 1.778279410038922752e-03
1.045542771483124625e+03 3.162277660168379394e-03
1.089721982687910213e+03 5.623413251903490971e-03
1.140265899221209793e+03 1.000000000000000021e-02
1.199621203949614710e+03 1.778279410038922925e-02
1.283973706803052664e+03 3.162277660168379134e-02
1.439059821364453910e+03 5.623413251903491145e-02
1.671993294536466237e+03 1.000000000000000056e-01
1.935761712747809042e+03 1.778279410038922925e-01
2.197843167739021283e+03 3.162277660168379412e-01
2.446078017118314619e+03 5.623413251903490728e-01
2.676250641979090688e+03 1.000000000000000000e+00
2.894183893401182559e+03 1.778279410038922759e+00
3.108404813396029112e+03 3.162277660168379523e+00
3.326598600098656789e+03 5.623413251903491172e+00
3.555061490740517456e+03 1.000000000000000000e+01
3.799516529452636405e+03 1.778279410038922848e+01
4.068132570691859655e+03 3.162277660168379256e+01
4.365068759439432142e+03 5.623413251903490817e+01
4.697388415242909105e+03 1.000000000000000000e+02
5.068366626315169015e+03 1.778279410038922776e+02
5.499846878109398858e+03 3.162277660168379612e+02
