# Temperature (K), Pressure (bars)
1.766611308513813810e+03 9.999999999999999547e-07
1.792081796585910752e+03 1.778279410038922901e-06
1.817552284658008375e+03 3.162277660168379191e-06
1.846273042849030162e+03 5.623413251903491208e-06
1.878254564098281890e+03 1.000000000000000082e-05
1.914832725687116636e+03 1.778279410038922901e-05
1.955236755770676154e+03 3.162277660168379530e-05
1.998487967059499624e+03 5.623413251903490700e-05
2.045236874589494846e+03 1.000000000000000048e-04
2.095398122253248403e+03 1.778279410038922698e-04
2.149314363996441898e+03 3.162277660168379394e-04
2.208148733600529340e+03 5.623413251903490971e-04
2.273842937468050877e+03 1.000000000000000021e-03
2.352214633067535942e+03 1.778279410038922752e-03
2.447721831999486312e+03 3.162277660168379394e-03
2.556004722835800294e+03 5.623413251903490971e-03
2.673175516880106898e+03 1.000000000000000021e-02
2.800042673829628256e+03 1.778279410038922925e-02
2.938165432461206365e+03 3.162277660168379134e-02
3.090319548133956687e+03 5.623413251903491145e-02
3.260602834249738407e+03 1.000000000000000056e-01
3.456483022336327849e+03 1.778279410038922925e-01
3.657536596741614176e+03 3.162277660168379412e-01
3.888292110348348615e+03 5.623413251903490728e-01
4.158191607111365556e+03 1.000000000000000000e+00
4.473998098843108892e+03 1.778279410038922759e+00
4.878676819037268615e+03 3.162277660168379523e+00
5.440169789179577492e+03 5.623413251903491172e+00
6.291235051404924889e+03 1.000000000000000000e+01
7.602841771796329340e+03 1.778279410038922848e+01
9.330361894423334888e+03 3.162277660168379256e+01
1.000000000000000000e+04 5.623413251903490817e+01
1.000000000000000000e+04 1.000000000000000000e+02
1.000000000000000000e+04 1.778279410038922776e+02
1.000000000000000000e+04 3.162277660168379612e+02
