# Temperature (K), Pressure (bars)
2.101381263545367347e+03 9.999999999999999547e-07
2.111511985280000317e+03 1.778279410038922901e-06
2.121642707014632833e+03 3.162277660168379191e-06
2.137319756077214151e+03 5.623413251903491208e-06
2.159869845824222921e+03 1.000000000000000082e-05
2.186433740834002947e+03 1.778279410038922901e-05
2.214120104373429967e+03 3.162277660168379530e-05
2.241414665386560500e+03 5.623413251903490700e-05
2.268064017464032986e+03 1.000000000000000048e-04
2.295296428465517238e+03 1.778279410038922698e-04
2.324915044233369827e+03 3.162277660168379394e-04
2.358874309487975552e+03 5.623413251903490971e-04
2.398716066386236434e+03 1.000000000000000021e-03
2.446544386627583208e+03 1.778279410038922752e-03
2.503414958016628589e+03 3.162277660168379394e-03
2.574948410238127963e+03 5.623413251903490971e-03
2.669842378290347369e+03 1.000000000000000021e-02
2.783903044060448337e+03 1.778279410038922925e-02
2.910421083291470950e+03 3.162277660168379134e-02
3.050396528785067403e+03 5.623413251903491145e-02
3.206570691760539830e+03 1.000000000000000056e-01
3.383024347279303583e+03 1.778279410038922925e-01
3.584899700135164949e+03 3.162277660168379412e-01
3.814596975849218325e+03 5.623413251903490728e-01
4.081182466414010833e+03 1.000000000000000000e+00
4.384436702913258159e+03 1.778279410038922759e+00
4.748265829745827432e+03 3.162277660168379523e+00
5.226596479400737735e+03 5.623413251903491172e+00
5.904361204820555031e+03 1.000000000000000000e+01
6.927701388279915591e+03 1.778279410038922848e+01
8.437104417903707144e+03 3.162277660168379256e+01
1.000000000000000000e+04 5.623413251903490817e+01
1.000000000000000000e+04 1.000000000000000000e+02
1.000000000000000000e+04 1.778279410038922776e+02
1.000000000000000000e+04 3.162277660168379612e+02
