# Temperature (K), Pressure (bars)
1.553550228098338039e+03 9.999999999999999547e-07
1.589628486028023872e+03 1.778279410038922901e-06
1.625706743958707648e+03 3.162277660168379191e-06
1.664666456457189270e+03 5.623413251903491208e-06
1.708429206699057431e+03 1.000000000000000082e-05
1.754265763624434840e+03 1.778279410038922901e-05
1.801120266961402876e+03 3.162277660168379530e-05
1.847730004191210355e+03 5.623413251903490700e-05
1.893021425234354410e+03 1.000000000000000048e-04
1.938701852823302488e+03 1.778279410038922698e-04
1.986565841369400914e+03 3.162277660168379394e-04
2.037921933375768731e+03 5.623413251903490971e-04
2.093915396371330644e+03 1.000000000000000021e-03
2.155395369153247429e+03 1.778279410038922752e-03
2.226909856272257002e+03 3.162277660168379394e-03
2.318969870701178934e+03 5.623413251903490971e-03
2.432490190352441459e+03 1.000000000000000021e-02
2.557557917857482607e+03 1.778279410038922925e-02
2.690187615042346806e+03 3.162277660168379134e-02
2.831989692694940913e+03 5.623413251903491145e-02
2.984835819632962284e+03 1.000000000000000056e-01
3.150842811501099732e+03 1.778279410038922925e-01
3.331598038482369248e+03 3.162277660168379412e-01
3.527857795716008695e+03 5.623413251903490728e-01
3.741102864346014940e+03 1.000000000000000000e+00
3.975465715375095442e+03 1.778279410038922759e+00
4.238121591484731653e+03 3.162277660168379523e+00
4.539416826801911157e+03 5.623413251903491172e+00
4.891109532603845764e+03 1.000000000000000000e+01
5.320454106361343293e+03 1.778279410038922848e+01
5.865789270323112760e+03 3.162277660168379256e+01
6.595479424170915081e+03 5.623413251903490817e+01
7.633245624257987402e+03 1.000000000000000000e+02
9.124586686250295315e+03 1.778279410038922776e+02
1.103338014483148254e+04 3.162277660168379612e+02
