# Temperature (K), Pressure (bars)
9.967216277902651882e+02 3.162277660168379394e-04
1.060982244528591764e+03 5.623413251903490971e-04
1.125242861908597206e+03 1.000000000000000021e-03
1.176932601443911153e+03 1.778279410038922752e-03
1.219355624126456632e+03 3.162277660168379394e-03
1.258538663686354539e+03 5.623413251903490971e-03
1.295353039446649746e+03 1.000000000000000021e-02
1.331789424495311778e+03 1.778279410038922925e-02
1.370303744601110793e+03 3.162277660168379134e-02
1.411909279269473018e+03 5.623413251903491145e-02
1.456924987835356433e+03 1.000000000000000056e-01
1.514205432449441560e+03 1.778279410038922925e-01
1.616832750804230500e+03 3.162277660168379412e-01
1.764306900421323007e+03 5.623413251903490728e-01
1.951576933098706149e+03 1.000000000000000000e+00
2.206699488741564437e+03 1.778279410038922759e+00
2.490595488600149565e+03 3.162277660168379523e+00
2.760796287728044717e+03 5.623413251903491172e+00
3.024381021702086400e+03 1.000000000000000000e+01
3.287053327957802594e+03 1.778279410038922848e+01
3.557838446380248115e+03 3.162277660168379256e+01
3.843671322934071213e+03 5.623413251903490817e+01
4.151786141741188658e+03 1.000000000000000000e+02
4.485984522025150909e+03 1.778279410038922776e+02
4.862140433286452208e+03 3.162277660168379612e+02
