# Temperature (K), Pressure (bars)
8.238931506631281536e+02 1.778279410038922901e-05
8.849948067611575198e+02 3.162277660168379530e-05
9.460964618094897105e+02 5.623413251903490700e-05
9.995328213507607416e+02 1.000000000000000048e-04
1.051250855320208302e+03 1.778279410038922698e-04
1.105664723417770574e+03 3.162277660168379394e-04
1.158480070289448577e+03 5.623413251903490971e-04
1.206809039542516075e+03 1.000000000000000021e-03
1.247943518889359893e+03 1.778279410038922752e-03
1.283805731121312419e+03 3.162277660168379394e-03
1.322971074717979945e+03 5.623413251903490971e-03
1.365475141995855438e+03 1.000000000000000021e-02
1.435846119839688754e+03 1.778279410038922925e-02
1.575396117423023952e+03 3.162277660168379134e-02
1.757385309087268524e+03 5.623413251903491145e-02
1.949121139406510110e+03 1.000000000000000056e-01
2.165379388824044327e+03 1.778279410038922925e-01
2.392346492068109910e+03 3.162277660168379412e-01
2.608431589129495933e+03 5.623413251903490728e-01
2.817104772171578588e+03 1.000000000000000000e+00
3.024031655124047120e+03 1.778279410038922759e+00
3.233777274391293759e+03 3.162277660168379523e+00
3.451044134642978861e+03 5.623413251903491172e+00
3.681083680497427849e+03 1.000000000000000000e+01
3.929427330920636905e+03 1.778279410038922848e+01
4.203913071313774708e+03 3.162277660168379256e+01
4.509823519050112736e+03 5.623413251903490817e+01
4.854943513546540089e+03 1.000000000000000000e+02
5.242776130393366657e+03 1.778279410038922776e+02
5.697651036526895950e+03 3.162277660168379612e+02
