# Temperature (K), Pressure (bars)
7.721738617465458674e+02 3.162277660168379394e-04
8.184898270131093341e+02 5.623413251903490971e-04
8.648057932059830364e+02 1.000000000000000021e-03
9.102297789298140742e+02 1.778279410038922752e-03
9.556006272984498082e+02 3.162277660168379394e-03
1.003429319749961451e+03 5.623413251903490971e-03
1.057418649122433180e+03 1.000000000000000021e-02
1.121036337090699590e+03 1.778279410038922925e-02
1.201398570554377557e+03 3.162277660168379134e-02
1.303086859940834756e+03 5.623413251903491145e-02
1.449986953486061566e+03 1.000000000000000056e-01
1.668045573980442668e+03 1.778279410038922925e-01
1.927070614343838770e+03 3.162277660168379412e-01
2.191723707445694799e+03 5.623413251903490728e-01
2.449563911380905211e+03 1.000000000000000000e+00
2.692916603426593156e+03 1.778279410038922759e+00
2.925519993830166641e+03 3.162277660168379523e+00
3.154916888498999015e+03 5.623413251903491172e+00
3.388769488451888719e+03 1.000000000000000000e+01
3.633932065406613219e+03 1.778279410038922848e+01
3.898912360709103723e+03 3.162277660168379256e+01
4.188083973057223375e+03 5.623413251903490817e+01
4.508123012450448186e+03 1.000000000000000000e+02
4.862059880179007450e+03 1.778279410038922776e+02
5.269488888233416219e+03 3.162277660168379612e+02
