# Temperature (K), Pressure (bars)
8.502091664853319344e+02 3.162277660168379394e-04
8.874467164454094927e+02 5.623413251903490971e-04
9.246842669699010457e+02 1.000000000000000021e-03
9.614498854607376188e+02 1.778279410038922752e-03
9.998097035020791736e+02 3.162277660168379394e-03
1.040072286371293558e+03 5.623413251903490971e-03
1.081308058946817937e+03 1.000000000000000021e-02
1.124233451638970337e+03 1.778279410038922925e-02
1.170959028636717903e+03 3.162277660168379134e-02
1.225310680175880634e+03 5.623413251903491145e-02
1.289940774947160207e+03 1.000000000000000056e-01
1.380023340218916019e+03 1.778279410038922925e-01
1.517913769827145643e+03 3.162277660168379412e-01
1.719881556326129385e+03 5.623413251903490728e-01
1.982433932808691679e+03 1.000000000000000000e+00
2.264578978624041611e+03 1.778279410038922759e+00
2.538558348454700990e+03 3.162277660168379523e+00
2.804110315049117162e+03 5.623413251903491172e+00
3.063049322864995247e+03 1.000000000000000000e+01
3.322261917462920337e+03 1.778279410038922848e+01
3.591470752148635256e+03 3.162277660168379256e+01
3.876835487485082012e+03 5.623413251903490817e+01
4.185385492885720851e+03 1.000000000000000000e+02
4.520592402956536716e+03 1.778279410038922776e+02
4.899096533070752230e+03 3.162277660168379612e+02
