# Temperature (K), Pressure (bars)
1.139725831253919978e+03 9.999999999999999547e-07
1.220757156257217048e+03 1.778279410038922901e-06
1.301788481260521621e+03 3.162277660168379191e-06
1.376389397431417592e+03 5.623413251903491208e-06
1.438621024630101601e+03 1.000000000000000082e-05
1.496166976584554277e+03 1.778279410038922901e-05
1.567112357926032701e+03 3.162277660168379530e-05
1.649500401794272875e+03 5.623413251903490700e-05
1.725180323460674572e+03 1.000000000000000048e-04
1.791743266228964558e+03 1.778279410038922698e-04
1.858391235450206750e+03 3.162277660168379394e-04
1.928712116498669502e+03 5.623413251903490971e-04
2.002961208894051197e+03 1.000000000000000021e-03
2.087092613273311599e+03 1.778279410038922752e-03
2.191906425781990038e+03 3.162277660168379394e-03
2.316211239674920307e+03 5.623413251903490971e-03
2.449550744680877870e+03 1.000000000000000021e-02
2.588299147790827192e+03 1.778279410038922925e-02
2.733810074847122451e+03 3.162277660168379134e-02
2.887900253736564991e+03 5.623413251903491145e-02
3.052656824302010136e+03 1.000000000000000056e-01
3.229886693369131081e+03 1.778279410038922925e-01
3.420627145764645775e+03 3.162277660168379412e-01
3.626334138277179591e+03 5.623413251903490728e-01
3.850933916070732266e+03 1.000000000000000000e+00
4.101493129439682889e+03 1.778279410038922759e+00
4.388302161447736580e+03 3.162277660168379523e+00
4.720177330116162011e+03 5.623413251903491172e+00
5.127614204398675611e+03 1.000000000000000000e+01
5.649695566122770288e+03 1.778279410038922848e+01
6.352633170155350854e+03 3.162277660168379256e+01
7.349860134862545237e+03 5.623413251903490817e+01
8.810179137295494002e+03 1.000000000000000000e+02
1.071130427939818219e+04 1.778279410038922776e+02
1.298807651832276679e+04 3.162277660168379612e+02
