# Temperature (K), Pressure (bars)
7.857539337897673022e+02 3.162277660168379394e-04
8.275118108514272990e+02 5.623413251903490971e-04
8.692696889690143962e+02 1.000000000000000021e-03
9.108761802998141093e+02 1.778279410038922752e-03
9.528102941957376970e+02 3.162277660168379394e-03
9.959973213008983066e+02 5.623413251903490971e-03
1.040732880662738353e+03 1.000000000000000021e-02
1.088469833699476794e+03 1.778279410038922925e-02
1.142992180398625123e+03 3.162277660168379134e-02
1.209802969340368691e+03 5.623413251903491145e-02
1.295204520477468805e+03 1.000000000000000056e-01
1.410237747828596412e+03 1.778279410038922925e-01
1.586598348550627634e+03 3.162277660168379412e-01
1.833761983281348876e+03 5.623413251903490728e-01
2.108773743257940168e+03 1.000000000000000000e+00
2.381392417216977265e+03 1.778279410038922759e+00
2.646473853559785766e+03 3.162277660168379523e+00
2.901922620337587887e+03 5.623413251903491172e+00
3.152896482155822014e+03 1.000000000000000000e+01
3.407026068596267578e+03 1.778279410038922848e+01
3.673692778818932311e+03 3.162277660168379256e+01
3.958754461995562906e+03 5.623413251903490817e+01
4.269039436343447051e+03 1.000000000000000000e+02
4.607759878947234029e+03 1.778279410038922776e+02
4.992180863100678835e+03 3.162277660168379612e+02
