# Temperature (K), Pressure (bars)
1.305889888907031491e+03 9.999999999999999547e-07
1.332842906084849119e+03 1.778279410038922901e-06
1.359795923264729936e+03 3.162277660168379191e-06
1.392135767135229344e+03 5.623413251903491208e-06
1.431083108160452184e+03 1.000000000000000082e-05
1.476467333577309091e+03 1.778279410038922901e-05
1.531571988694076936e+03 3.162277660168379530e-05
1.598097852000816602e+03 5.623413251903490700e-05
1.669604031229825978e+03 1.000000000000000048e-04
1.742147482395955876e+03 1.778279410038922698e-04
1.819145481388395638e+03 3.162277660168379394e-04
1.901570338182106298e+03 5.623413251903490971e-04
1.993711025571503342e+03 1.000000000000000021e-03
2.106219260071074586e+03 1.778279410038922752e-03
2.237101125536602467e+03 3.162277660168379394e-03
2.374515814907161257e+03 5.623413251903490971e-03
2.514455534857201201e+03 1.000000000000000021e-02
2.658666399157111300e+03 1.778279410038922925e-02
2.809119380714669205e+03 3.162277660168379134e-02
2.968069980379606022e+03 5.623413251903491145e-02
3.138195798129403556e+03 1.000000000000000056e-01
3.322154705829780141e+03 1.778279410038922925e-01
3.522194314759023200e+03 3.162277660168379412e-01
3.741299108687954686e+03 5.623413251903490728e-01
3.985705077576039457e+03 1.000000000000000000e+00
4.266262473858221711e+03 1.778279410038922759e+00
4.586755058405261479e+03 3.162277660168379523e+00
4.986683759559165082e+03 5.623413251903491172e+00
5.516742128508155474e+03 1.000000000000000000e+01
6.274231417523745222e+03 1.778279410038922848e+01
7.416329606674834395e+03 3.162277660168379256e+01
9.041341982229143468e+03 5.623413251903490817e+01
1.103790036049016089e+04 1.000000000000000000e+02
1.343722730357390537e+04 1.778279410038922776e+02
1.629945669966195055e+04 3.162277660168379612e+02
