# Temperature (K), Pressure (bars)
1.571392257655360027e+03 9.999999999999999547e-07
1.630045383446412416e+03 1.778279410038922901e-06
1.688698509241358124e+03 3.162277660168379191e-06
1.749756910355228229e+03 5.623413251903491208e-06
1.815230418701240069e+03 1.000000000000000082e-05
1.884047414284938441e+03 1.778279410038922901e-05
1.955797912935531940e+03 3.162277660168379530e-05
2.031542625826106359e+03 5.623413251903490700e-05
2.111860556680666377e+03 1.000000000000000048e-04
2.197962434927070717e+03 1.778279410038922698e-04
2.291903887645423765e+03 3.162277660168379394e-04
2.395140969549238889e+03 5.623413251903490971e-04
2.507285348640161828e+03 1.000000000000000021e-03
2.627377932567084827e+03 1.778279410038922752e-03
2.755573287723467729e+03 3.162277660168379394e-03
2.893368126942083109e+03 5.623413251903490971e-03
3.044121932066757836e+03 1.000000000000000021e-02
3.215391249936894837e+03 1.778279410038922925e-02
3.427252730675943894e+03 3.162277660168379134e-02
3.664408872457805501e+03 5.623413251903491145e-02
3.997042512967368111e+03 1.000000000000000056e-01
4.557978805518490844e+03 1.778279410038922925e-01
5.493609879933876982e+03 3.162277660168379412e-01
6.787276360704883700e+03 5.623413251903490728e-01
8.306019255372586485e+03 1.000000000000000000e+00
9.737846476770078880e+03 1.778279410038922759e+00
1.122273881813254411e+04 3.162277660168379523e+00
1.305333948684134521e+04 5.623413251903491172e+00
1.537941207478734032e+04 1.000000000000000000e+01
1.832687656820421762e+04 1.778279410038922848e+01
2.204643524995325424e+04 3.162277660168379256e+01
2.671151395776721256e+04 5.623413251903490817e+01
3.249687507049777923e+04 1.000000000000000000e+02
3.955580749161858694e+04 1.778279410038922776e+02
4.796963027010949736e+04 3.162277660168379612e+02
