# Temperature (K), Pressure (bars)
1.125113942502363670e+03 5.623413251903490971e-04
1.158148024082869824e+03 1.000000000000000021e-03
1.191182106673878479e+03 1.778279410038922752e-03
1.223417184223513232e+03 3.162277660168379394e-03
1.252671608591867653e+03 5.623413251903490971e-03
1.287381790257201828e+03 1.000000000000000021e-02
1.345369610418929369e+03 1.778279410038922925e-02
1.414790104974677433e+03 3.162277660168379134e-02
1.498654639702304621e+03 5.623413251903491145e-02
1.616665149349912781e+03 1.000000000000000056e-01
1.727393889477477614e+03 1.778279410038922925e-01
1.809484457532009628e+03 3.162277660168379412e-01
1.898088843248548528e+03 5.623413251903490728e-01
2.001072265441280024e+03 1.000000000000000000e+00
2.144481239496813032e+03 1.778279410038922759e+00
2.375562174391600820e+03 3.162277660168379523e+00
2.652877236264615021e+03 5.623413251903491172e+00
2.925049078752615515e+03 1.000000000000000000e+01
3.194929975531868422e+03 1.778279410038922848e+01
3.469906527421122973e+03 3.162277660168379256e+01
3.757179533322057068e+03 5.623413251903490817e+01
4.064323044947244853e+03 1.000000000000000000e+02
4.395254223943487887e+03 1.778279410038922776e+02
4.765773265754079148e+03 3.162277660168379612e+02
