# Temperature (K), Pressure (bars)
8.530060514280090729e+02 1.778279410038922901e-05
9.070300697578957170e+02 3.162277660168379530e-05
9.610540891987458281e+02 5.623413251903490700e-05
1.010311974315168754e+03 1.000000000000000048e-04
1.054503686035160626e+03 1.778279410038922698e-04
1.095275604878886270e+03 3.162277660168379394e-04
1.133058783492727571e+03 5.623413251903490971e-04
1.167401471397835166e+03 1.000000000000000021e-03
1.198943615192142715e+03 1.778279410038922752e-03
1.229596317146981846e+03 3.162277660168379394e-03
1.260728614277581073e+03 5.623413251903490971e-03
1.292571812620623177e+03 1.000000000000000021e-02
1.324165061342587933e+03 1.778279410038922925e-02
1.354080353780926998e+03 3.162277660168379134e-02
1.401289620409426561e+03 5.623413251903491145e-02
1.485399448832952203e+03 1.000000000000000056e-01
1.603191105834931022e+03 1.778279410038922925e-01
1.743997688735043084e+03 3.162277660168379412e-01
1.930296747062760687e+03 5.623413251903490728e-01
2.188625560663135730e+03 1.000000000000000000e+00
2.466943046767113628e+03 1.778279410038922759e+00
2.724775264758727189e+03 3.162277660168379523e+00
2.973336516367764489e+03 5.623413251903491172e+00
3.219403993939396514e+03 1.000000000000000000e+01
3.470745461036979577e+03 1.778279410038922848e+01
3.736587433064664765e+03 3.162277660168379256e+01
4.022521830626992141e+03 5.623413251903490817e+01
4.335292438441690138e+03 1.000000000000000000e+02
4.678008586305747485e+03 1.778279410038922776e+02
5.068580367723529889e+03 3.162277660168379612e+02
