# Temperature (K), Pressure (bars)
9.854849663470652104e+02 5.623413251903490700e-05
1.024741783076900219e+03 1.000000000000000048e-04
1.063998601839104595e+03 1.778279410038922698e-04
1.105552865873892642e+03 3.162277660168379394e-04
1.149192838623116359e+03 5.623413251903490971e-04
1.195426386955384260e+03 1.000000000000000021e-03
1.246201671897322740e+03 1.778279410038922752e-03
1.304187616685255534e+03 3.162277660168379394e-03
1.370742706480673860e+03 5.623413251903490971e-03
1.443075792874454919e+03 1.000000000000000021e-02
1.523717240209630972e+03 1.778279410038922925e-02
1.617755117996308627e+03 3.162277660168379134e-02
1.719250670981845133e+03 5.623413251903491145e-02
1.831918575303994203e+03 1.000000000000000056e-01
1.965990214237443297e+03 1.778279410038922925e-01
2.147681185594800809e+03 3.162277660168379412e-01
2.386640155935256189e+03 5.623413251903490728e-01
2.629641259760991488e+03 1.000000000000000000e+00
2.852459614491902812e+03 1.778279410038922759e+00
3.072031648730607685e+03 3.162277660168379523e+00
3.294765861091278566e+03 5.623413251903491172e+00
3.526153395257716966e+03 1.000000000000000000e+01
3.772026934866779357e+03 1.778279410038922848e+01
4.040171995349565350e+03 3.162277660168379256e+01
4.335846754303131092e+03 5.623413251903490817e+01
4.666164711110321150e+03 1.000000000000000000e+02
5.034276860522338211e+03 1.778279410038922776e+02
5.461993686436270764e+03 3.162277660168379612e+02
