# Temperature (K), Pressure (bars)
1.939835928256790794e+03 9.999999999999999547e-07
1.952449626175564163e+03 1.778279410038922901e-06
1.965063324096326824e+03 3.162277660168379191e-06
1.985740136011469986e+03 5.623413251903491208e-06
2.017743652236435537e+03 1.000000000000000082e-05
2.057759741497442064e+03 1.778279410038922901e-05
2.101429637637528685e+03 3.162277660168379530e-05
2.146175500745791396e+03 5.623413251903490700e-05
2.189473720776162281e+03 1.000000000000000048e-04
2.229342484098641762e+03 1.778279410038922698e-04
2.265496159351958340e+03 3.162277660168379394e-04
2.298724281384595088e+03 5.623413251903490971e-04
2.329679898576942833e+03 1.000000000000000021e-03
2.359734319850050269e+03 1.778279410038922752e-03
2.390720746342120492e+03 3.162277660168379394e-03
2.426902576849057368e+03 5.623413251903490971e-03
2.469865844330713117e+03 1.000000000000000021e-02
2.529010555368129644e+03 1.778279410038922925e-02
2.623534231474651278e+03 3.162277660168379134e-02
2.748119993849395541e+03 5.623413251903491145e-02
2.887243109972437196e+03 1.000000000000000056e-01
3.040047304606957368e+03 1.778279410038922925e-01
3.208934932179335647e+03 3.162277660168379412e-01
3.394418844612635439e+03 5.623413251903490728e-01
3.596057434490688138e+03 1.000000000000000000e+00
3.815080825018344513e+03 1.778279410038922759e+00
4.055675731311725031e+03 3.162277660168379523e+00
4.324681748527017589e+03 5.623413251903491172e+00
4.631589540245293392e+03 1.000000000000000000e+01
4.989242930099986552e+03 1.778279410038922848e+01
5.418840279036342508e+03 3.162277660168379256e+01
5.950958695113939029e+03 5.623413251903490817e+01
6.637611518062475625e+03 1.000000000000000000e+02
7.567522104370538727e+03 1.778279410038922776e+02
8.869535488482688379e+03 3.162277660168379612e+02
