# Temperature (K), Pressure (bars)
2.366437989108487272e+03 9.999999999999999547e-07
2.383351721924206231e+03 1.778279410038922901e-06
2.400265454739925190e+03 3.162277660168379191e-06
2.422460833350078246e+03 5.623413251903491208e-06
2.448286384200849170e+03 1.000000000000000082e-05
2.475370894980064350e+03 1.778279410038922901e-05
2.502579382701744635e+03 3.162277660168379530e-05
2.529051278762887705e+03 5.623413251903490700e-05
2.554127525141458136e+03 1.000000000000000048e-04
2.576197838986515308e+03 1.778279410038922698e-04
2.592526368417746653e+03 3.162277660168379394e-04
2.601711865430874241e+03 5.623413251903490971e-04
2.607438984653911120e+03 1.000000000000000021e-03
2.617124956831574764e+03 1.778279410038922752e-03
2.636414176010599931e+03 3.162277660168379394e-03
2.667003710123994551e+03 5.623413251903490971e-03
2.709158061395947698e+03 1.000000000000000021e-02
2.763809364672611082e+03 1.778279410038922925e-02
2.834442411889932828e+03 3.162277660168379134e-02
2.934027465187833513e+03 5.623413251903491145e-02
3.067383423938214946e+03 1.000000000000000056e-01
3.219830690153972682e+03 1.778279410038922925e-01
3.386601221722382434e+03 3.162277660168379412e-01
3.574488198515688509e+03 5.623413251903490728e-01
3.787835157312641513e+03 1.000000000000000000e+00
4.030854935883811777e+03 1.778279410038922759e+00
4.309267394177570168e+03 3.162277660168379523e+00
4.633630145140949935e+03 5.623413251903491172e+00
5.012466565561441712e+03 1.000000000000000000e+01
5.487111741644948779e+03 1.778279410038922848e+01
6.113612510393053526e+03 3.162277660168379256e+01
6.997752626174499710e+03 5.623413251903490817e+01
8.294451222775727729e+03 1.000000000000000000e+02
1.000000000000000000e+04 1.778279410038922776e+02
1.000000000000000000e+04 3.162277660168379612e+02
