# Temperature (K), Pressure (bars)
1.488449288679902111e+03 1.000000000000000048e-04
1.521013054979707022e+03 1.778279410038922698e-04
1.553576823787049761e+03 3.162277660168379394e-04
1.589115090366310142e+03 5.623413251903490971e-04
1.628264037783432514e+03 1.000000000000000021e-03
1.669123912445289534e+03 1.778279410038922752e-03
1.711733138831718179e+03 3.162277660168379394e-03
1.753316876979986773e+03 5.623413251903490971e-03
1.792710726572675640e+03 1.000000000000000021e-02
1.833968756950930356e+03 1.778279410038922925e-02
1.877592690152028808e+03 3.162277660168379134e-02
1.922807447796098131e+03 5.623413251903491145e-02
1.972043771549183475e+03 1.000000000000000056e-01
2.029977949250794381e+03 1.778279410038922925e-01
2.102965585999031191e+03 3.162277660168379412e-01
2.192616350925774441e+03 5.623413251903490728e-01
2.315007056458023726e+03 1.000000000000000000e+00
2.507137596457430391e+03 1.778279410038922759e+00
2.755971365047435029e+03 3.162277660168379523e+00
3.008207089116773204e+03 5.623413251903491172e+00
3.253130387837408762e+03 1.000000000000000000e+01
3.504748359712321417e+03 1.778279410038922848e+01
3.770785750821973579e+03 3.162277660168379256e+01
4.057562182962492898e+03 5.623413251903490817e+01
4.371952725336774165e+03 1.000000000000000000e+02
4.717117943512595048e+03 1.778279410038922776e+02
5.111177454765327639e+03 3.162277660168379612e+02
