# Temperature (K), Pressure (bars)
9.492374713537263915e+02 3.162277660168379394e-04
9.936694718430863986e+02 5.623413251903490971e-04
1.038101473255796691e+03 1.000000000000000021e-03
1.083612093433340760e+03 1.778279410038922752e-03
1.131174797749143636e+03 3.162277660168379394e-03
1.180806636813150590e+03 5.623413251903490971e-03
1.233817446745943698e+03 1.000000000000000021e-02
1.292355127370029550e+03 1.778279410038922925e-02
1.367225181736413560e+03 3.162277660168379134e-02
1.477506799754291478e+03 5.623413251903491145e-02
1.630988757742543157e+03 1.000000000000000056e-01
1.804291955663427871e+03 1.778279410038922925e-01
2.001708618469946941e+03 3.162277660168379412e-01
2.249389267026356720e+03 5.623413251903490728e-01
2.506633679280453180e+03 1.000000000000000000e+00
2.742823771051702806e+03 1.778279410038922759e+00
2.971558423303938525e+03 3.162277660168379523e+00
3.199705527208776402e+03 5.623413251903491172e+00
3.433558784460808511e+03 1.000000000000000000e+01
3.679457813640650784e+03 1.778279410038922848e+01
3.945481376929906673e+03 3.162277660168379256e+01
4.236816866008979559e+03 5.623413251903490817e+01
4.560296080126893685e+03 1.000000000000000000e+02
4.918968277566426877e+03 1.778279410038922776e+02
5.333107549027248751e+03 3.162277660168379612e+02
