# Temperature (K), Pressure (bars)
9.903231650320146855e+02 3.162277660168379394e-03
1.030271422564665727e+03 5.623413251903490971e-03
1.070219680429205255e+03 1.000000000000000021e-02
1.108742455913826007e+03 1.778279410038922925e-02
1.147055052044445119e+03 3.162277660168379134e-02
1.187350928184729810e+03 5.623413251903491145e-02
1.231836489122274770e+03 1.000000000000000056e-01
1.281921644329828723e+03 1.778279410038922925e-01
1.343743344856189879e+03 3.162277660168379412e-01
1.426521287442996027e+03 5.623413251903490728e-01
1.541400474241907432e+03 1.000000000000000000e+00
1.691552990012296050e+03 1.778279410038922759e+00
1.896085453700549351e+03 3.162277660168379523e+00
2.173982371678625896e+03 5.623413251903491172e+00
2.479943692224194365e+03 1.000000000000000000e+01
2.779036892701189572e+03 1.778279410038922848e+01
3.079638985748616506e+03 3.162277660168379256e+01
3.382436453014275685e+03 5.623413251903490817e+01
3.694589457282696912e+03 1.000000000000000000e+02
4.021762666103700667e+03 1.778279410038922776e+02
4.377814193012225587e+03 3.162277660168379612e+02
