# Temperature (K), Pressure (bars)
2.086840676547230942e+03 9.999999999999999547e-07
2.113222047743819530e+03 1.778279410038922901e-06
2.139603418940972915e+03 3.162277660168379191e-06
2.171182709066647476e+03 5.623413251903491208e-06
2.207163680668991219e+03 1.000000000000000082e-05
2.246589056924988199e+03 1.778279410038922901e-05
2.289632203634704638e+03 3.162277660168379530e-05
2.335718312450950179e+03 5.623413251903490700e-05
2.382322773058904204e+03 1.000000000000000048e-04
2.427049363052901754e+03 1.778279410038922698e-04
2.469174087562873865e+03 3.162277660168379394e-04
2.507894597917405463e+03 5.623413251903490971e-04
2.543634588673911821e+03 1.000000000000000021e-03
2.578632208066029762e+03 1.778279410038922752e-03
2.617081212137136390e+03 3.162277660168379394e-03
2.661551652411549185e+03 5.623413251903490971e-03
2.715626196845408685e+03 1.000000000000000021e-02
2.771523951805198067e+03 1.778279410038922925e-02
2.839835925367634445e+03 3.162277660168379134e-02
2.954184375542162798e+03 5.623413251903491145e-02
3.101961124803845451e+03 1.000000000000000056e-01
3.265411796675884034e+03 1.778279410038922925e-01
3.451797029373201894e+03 3.162277660168379412e-01
3.662418173985704016e+03 5.623413251903490728e-01
3.898859081389066887e+03 1.000000000000000000e+00
4.166631712593153679e+03 1.778279410038922759e+00
4.477469636603371328e+03 3.162277660168379523e+00
4.836959584375245868e+03 5.623413251903491172e+00
5.291980210107617495e+03 1.000000000000000000e+01
5.904794637770178269e+03 1.778279410038922848e+01
6.798257945187697260e+03 3.162277660168379256e+01
8.135846506806256002e+03 5.623413251903490817e+01
9.926290990650870299e+03 1.000000000000000000e+02
1.208628172083718709e+04 1.778279410038922776e+02
1.466260142896029356e+04 3.162277660168379612e+02
