# Temperature (K), Pressure (bars)
1.092582540187692530e+03 5.623413251903490971e-04
1.163846517322133195e+03 1.000000000000000021e-03
1.235110497409404161e+03 1.778279410038922752e-03
1.303261224567733734e+03 3.162277660168379394e-03
1.361056919305411839e+03 5.623413251903490971e-03
1.412783345149864090e+03 1.000000000000000021e-02
1.466837988883283288e+03 1.778279410038922925e-02
1.536313800960164144e+03 3.162277660168379134e-02
1.621511120096653713e+03 5.623413251903491145e-02
1.695956641232827678e+03 1.000000000000000056e-01
1.755530586586107574e+03 1.778279410038922925e-01
1.821278648346044974e+03 3.162277660168379412e-01
1.900045908808467402e+03 5.623413251903490728e-01
1.997723856095408564e+03 1.000000000000000000e+00
2.125350532139567804e+03 1.778279410038922759e+00
2.322754494981277730e+03 3.162277660168379523e+00
2.604418408770227416e+03 5.623413251903491172e+00
2.898284234961959100e+03 1.000000000000000000e+01
3.171723152062118970e+03 1.778279410038922848e+01
3.447902238263300205e+03 3.162277660168379256e+01
3.735679094212131986e+03 5.623413251903490817e+01
4.042677129545136722e+03 1.000000000000000000e+02
4.372967226142231993e+03 1.778279410038922776e+02
4.742211004091513132e+03 3.162277660168379612e+02
