# Temperature (K), Pressure (bars)
2.208874380204435965e+03 9.999999999999999547e-07
2.235246245607442233e+03 1.778279410038922901e-06
2.261618111010448956e+03 3.162277660168379191e-06
2.288867799193774317e+03 5.623413251903491208e-06
2.318997057660059454e+03 1.000000000000000082e-05
2.352262491219286403e+03 1.778279410038922901e-05
2.387327070757768524e+03 3.162277660168379530e-05
2.422852530116516391e+03 5.623413251903490700e-05
2.456827118140209222e+03 1.000000000000000048e-04
2.486169400756289178e+03 1.778279410038922698e-04
2.509424030732350730e+03 3.162277660168379394e-04
2.529658699379451718e+03 5.623413251903490971e-04
2.552948389792049056e+03 1.000000000000000021e-03
2.584291263775297921e+03 1.778279410038922752e-03
2.626987970359350584e+03 3.162277660168379394e-03
2.681163625230668003e+03 5.623413251903490971e-03
2.747988802748392118e+03 1.000000000000000021e-02
2.821652235961720635e+03 1.778279410038922925e-02
2.909815493193654220e+03 3.162277660168379134e-02
3.035561951137031429e+03 5.623413251903491145e-02
3.188528306627657912e+03 1.000000000000000056e-01
3.358483418261489078e+03 1.778279410038922925e-01
3.555063779238138977e+03 3.162277660168379412e-01
3.779627369942797941e+03 5.623413251903490728e-01
4.039034439927808762e+03 1.000000000000000000e+00
4.342987679451549411e+03 1.778279410038922759e+00
4.690583891718673840e+03 3.162277660168379523e+00
5.139100279253554618e+03 5.623413251903491172e+00
5.765077185941154312e+03 1.000000000000000000e+01
6.717623833853886026e+03 1.778279410038922848e+01
8.139351277804167694e+03 3.162277660168379256e+01
9.956705513278173385e+03 5.623413251903490817e+01
1.000000000000000000e+04 1.000000000000000000e+02
1.000000000000000000e+04 1.778279410038922776e+02
1.000000000000000000e+04 3.162277660168379612e+02
