# Temperature (K), Pressure (bars)
8.477454324685359097e+02 5.623413251903490700e-05
8.995777546996257570e+02 1.000000000000000048e-04
9.514100780947784415e+02 1.778279410038922698e-04
1.002263238707856772e+03 3.162277660168379394e-04
1.053072203432640435e+03 5.623413251903490971e-04
1.105897030641832998e+03 1.000000000000000021e-03
1.163078491080801541e+03 1.778279410038922752e-03
1.226630456623382997e+03 3.162277660168379394e-03
1.300916585512322172e+03 5.623413251903490971e-03
1.388021681902020418e+03 1.000000000000000021e-02
1.503328276785869775e+03 1.778279410038922925e-02
1.669183457811081553e+03 3.162277660168379134e-02
1.882163193733479375e+03 5.623413251903491145e-02
2.121825853289979477e+03 1.000000000000000056e-01
2.357104452306614348e+03 1.778279410038922925e-01
2.571616998818103639e+03 3.162277660168379412e-01
2.772546935419975853e+03 5.623413251903490728e-01
2.967593595741016998e+03 1.000000000000000000e+00
3.163296930856570725e+03 1.778279410038922759e+00
3.365338455331426758e+03 3.162277660168379523e+00
3.578815717490394491e+03 5.623413251903491172e+00
3.808555199675900894e+03 1.000000000000000000e+01
4.059751881815264369e+03 1.778279410038922848e+01
4.340630521482270524e+03 3.162277660168379256e+01
4.656264159504818053e+03 5.623413251903490817e+01
5.015169366516382070e+03 1.000000000000000000e+02
5.421268779644344249e+03 1.778279410038922776e+02
5.902764099157169767e+03 3.162277660168379612e+02
