# Temperature (K), Pressure (bars)
2.121393929772030333e+03 9.999999999999999547e-07
2.148082957209804135e+03 1.778279410038922901e-06
2.174771984647578392e+03 3.162277660168379191e-06
2.203119294046600771e+03 5.623413251903491208e-06
2.232937249970926587e+03 1.000000000000000082e-05
2.261829868434953823e+03 1.778279410038922901e-05
2.287810203517975424e+03 3.162277660168379530e-05
2.310890779817905695e+03 5.623413251903490700e-05
2.332882196564517926e+03 1.000000000000000048e-04
2.357037151053644720e+03 1.778279410038922698e-04
2.386633448833632428e+03 3.162277660168379394e-04
2.423801847997032382e+03 5.623413251903490971e-04
2.469629894481972315e+03 1.000000000000000021e-03
2.525575534562499342e+03 1.778279410038922752e-03
2.593434323495772333e+03 3.162277660168379394e-03
2.675927722089820691e+03 5.623413251903490971e-03
2.776065220608305935e+03 1.000000000000000021e-02
2.892780169579022186e+03 1.778279410038922925e-02
3.024484126083782030e+03 3.162277660168379134e-02
3.174180045619266821e+03 5.623413251903491145e-02
3.349763022870725308e+03 1.000000000000000056e-01
3.536990734046493344e+03 1.778279410038922925e-01
3.754829664279160170e+03 3.162277660168379412e-01
4.013056305419115688e+03 5.623413251903490728e-01
4.310839655233705344e+03 1.000000000000000000e+00
4.695338568097185089e+03 1.778279410038922759e+00
5.238207975613623603e+03 3.162277660168379523e+00
6.080791386429522390e+03 5.623413251903491172e+00
7.388935502561093017e+03 1.000000000000000000e+01
9.084833825871435693e+03 1.778279410038922848e+01
1.000000000000000000e+04 3.162277660168379256e+01
1.000000000000000000e+04 5.623413251903490817e+01
1.000000000000000000e+04 1.000000000000000000e+02
1.000000000000000000e+04 1.778279410038922776e+02
1.000000000000000000e+04 3.162277660168379612e+02
