# Temperature (K), Pressure (bars)
1.099520803252766882e+03 1.778279410038922901e-06
1.139555364006555237e+03 3.162277660168379191e-06
1.179589926346896391e+03 5.623413251903491208e-06
1.224003583457999412e+03 1.000000000000000082e-05
1.272388038340767480e+03 1.778279410038922901e-05
1.324157696730486350e+03 3.162277660168379530e-05
1.379618131355696278e+03 5.623413251903490700e-05
1.440623024793902232e+03 1.000000000000000048e-04
1.508129408328755744e+03 1.778279410038922698e-04
1.585312337943120838e+03 3.162277660168379394e-04
1.678999796790889150e+03 5.623413251903490971e-04
1.783297425449203502e+03 1.000000000000000021e-03
1.899050026086133130e+03 1.778279410038922752e-03
2.042556332511117716e+03 3.162277660168379394e-03
2.205596221165783845e+03 5.623413251903490971e-03
2.369040750613217824e+03 1.000000000000000021e-02
2.530093729663456998e+03 1.778279410038922925e-02
2.691680294517377206e+03 3.162277660168379134e-02
2.856463137801824359e+03 5.623413251903491145e-02
3.026835979827667870e+03 1.000000000000000056e-01
3.204813482747222679e+03 1.778279410038922925e-01
3.392122454258357720e+03 3.162277660168379412e-01
3.591465313226723083e+03 5.623413251903490728e-01
3.807655502025324495e+03 1.000000000000000000e+00
4.047506448276766605e+03 1.778279410038922759e+00
4.320041234400288886e+03 3.162277660168379523e+00
4.637972298486062755e+03 5.623413251903491172e+00
5.017613189653511654e+03 1.000000000000000000e+01
5.493890273879856068e+03 1.778279410038922848e+01
6.123030859340365168e+03 3.162277660168379256e+01
7.004517884831257106e+03 5.623413251903490817e+01
8.294692457326491422e+03 1.000000000000000000e+02
1.000000000000000000e+04 1.778279410038922776e+02
1.000000000000000000e+04 3.162277660168379612e+02
