# Temperature (K), Pressure (bars)
1.408118781766832399e+03 1.778279410038922901e-06
1.427065480806261121e+03 3.162277660168379191e-06
1.449134683345889243e+03 5.623413251903491208e-06
1.478108830266083487e+03 1.000000000000000082e-05
1.516051391641654391e+03 1.778279410038922901e-05
1.563766129398005432e+03 3.162277660168379530e-05
1.623707855261558507e+03 5.623413251903490700e-05
1.690496421452767891e+03 1.000000000000000048e-04
1.758867082086244636e+03 1.778279410038922698e-04
1.831249736862179361e+03 3.162277660168379394e-04
1.909148511963359397e+03 5.623413251903490971e-04
1.993817687886873500e+03 1.000000000000000021e-03
2.094209579542085521e+03 1.778279410038922752e-03
2.215787894939326179e+03 3.162277660168379394e-03
2.347551829422948686e+03 5.623413251903490971e-03
2.481764471540193881e+03 1.000000000000000021e-02
2.620425394475959365e+03 1.778279410038922925e-02
2.765362873078250686e+03 3.162277660168379134e-02
2.918357634332920043e+03 5.623413251903491145e-02
3.081441797179380956e+03 1.000000000000000056e-01
3.257067202436270236e+03 1.778279410038922925e-01
3.447777706194644907e+03 3.162277660168379412e-01
3.656068160643003466e+03 5.623413251903490728e-01
3.885738618443092946e+03 1.000000000000000000e+00
4.143893877170226915e+03 1.778279410038922759e+00
4.441947766102332025e+03 3.162277660168379523e+00
4.788798099527480190e+03 5.623413251903491172e+00
5.221983380733091508e+03 1.000000000000000000e+01
5.793306859647119381e+03 1.778279410038922848e+01
6.593743025098966427e+03 3.162277660168379256e+01
7.764724432502231139e+03 5.623413251903490817e+01
9.426232940769334164e+03 1.000000000000000000e+02
1.147792771948825794e+04 1.778279410038922776e+02
1.391937072925528810e+04 3.162277660168379612e+02
