# Temperature (K), Pressure (bars)
1.676832194488968980e+03 9.999999999999999547e-07
1.699702386544709498e+03 1.778279410038922901e-06
1.722572578613496944e+03 3.162277660168379191e-06
1.748342863692188075e+03 5.623413251903491208e-06
1.778376522027987903e+03 1.000000000000000082e-05
1.815005302183023559e+03 1.778279410038922901e-05
1.856154418979786215e+03 3.162277660168379530e-05
1.900237067481597478e+03 5.623413251903490700e-05
1.947922345660032533e+03 1.000000000000000048e-04
1.999642123126720890e+03 1.778279410038922698e-04
2.056086138446819859e+03 3.162277660168379394e-04
2.118018991168360117e+03 5.623413251903490971e-04
2.186032716960354719e+03 1.000000000000000021e-03
2.262870422326889638e+03 1.778279410038922752e-03
2.354123175857798742e+03 3.162277660168379394e-03
2.459580389475477205e+03 5.623413251903490971e-03
2.575164584182992712e+03 1.000000000000000021e-02
2.700317907629267211e+03 1.778279410038922925e-02
2.836419825819705238e+03 3.162277660168379134e-02
2.985326201209732972e+03 5.623413251903491145e-02
3.149596634139950766e+03 1.000000000000000056e-01
3.332025876427860112e+03 1.778279410038922925e-01
3.534606458791619389e+03 3.162277660168379412e-01
3.759532732264084189e+03 5.623413251903490728e-01
4.012369651364067067e+03 1.000000000000000000e+00
4.304540974964325869e+03 1.778279410038922759e+00
4.638786172777093270e+03 3.162277660168379523e+00
5.063312761605475316e+03 5.623413251903491172e+00
5.641535251920688097e+03 1.000000000000000000e+01
6.502244627762111122e+03 1.778279410038922848e+01
7.811480729934553892e+03 3.162277660168379256e+01
9.560002822522166753e+03 5.623413251903490817e+01
1.165580777514823239e+04 1.000000000000000000e+02
1.419134000885069145e+04 1.778279410038922776e+02
1.721676061484890306e+04 3.162277660168379612e+02
