# Temperature (K), Pressure (bars)
8.673140472254746101e+02 3.162277660168379530e-05
9.191236471968586557e+02 5.623413251903490700e-05
9.709332485296148434e+02 1.000000000000000048e-04
1.022302556675632786e+03 1.778279410038922698e-04
1.073318854527424946e+03 3.162277660168379394e-04
1.125431373521247906e+03 5.623413251903490971e-04
1.179831364234513330e+03 1.000000000000000021e-03
1.237899465549886145e+03 1.778279410038922752e-03
1.302108047853530707e+03 3.162277660168379394e-03
1.376219994928699180e+03 5.623413251903490971e-03
1.469089973684027882e+03 1.000000000000000021e-02
1.587740981650650838e+03 1.778279410038922925e-02
1.749701213561907707e+03 3.162277660168379134e-02
1.966265540413639428e+03 5.623413251903491145e-02
2.200473430719179760e+03 1.000000000000000056e-01
2.418831643571415498e+03 1.778279410038922925e-01
2.622087233748196923e+03 3.162277660168379412e-01
2.816740125053364409e+03 5.623413251903490728e-01
3.008889639671477653e+03 1.000000000000000000e+00
3.203620777797706978e+03 1.778279410038922759e+00
3.405877465795596891e+03 3.162277660168379523e+00
3.620555190658897573e+03 5.623413251903491172e+00
3.852464071803035495e+03 1.000000000000000000e+01
4.106894816181309579e+03 1.778279410038922848e+01
4.392419427664074647e+03 3.162277660168379256e+01
4.714485119472279621e+03 5.623413251903490817e+01
5.082219598283390951e+03 1.000000000000000000e+02
5.500635275252623615e+03 1.778279410038922776e+02
5.999010609810055030e+03 3.162277660168379612e+02
