# Temperature (K), Pressure (bars)
8.286105144840253161e+02 3.162277660168379394e-04
8.789175106371345692e+02 5.623413251903490971e-04
9.292245080181373851e+02 1.000000000000000021e-03
9.776440435295326097e+02 1.778279410038922752e-03
1.025560926128985102e+03 3.162277660168379394e-03
1.074355246088586910e+03 5.623413251903490971e-03
1.125691234201750376e+03 1.000000000000000021e-02
1.183022877609618490e+03 1.778279410038922925e-02
1.250132035811958986e+03 3.162277660168379134e-02
1.334666756340203392e+03 5.623413251903491145e-02
1.441511075476151973e+03 1.000000000000000056e-01
1.596362574971629556e+03 1.778279410038922925e-01
1.825331643359427744e+03 3.162277660168379412e-01
2.091604526206174796e+03 5.623413251903490728e-01
2.355087595559736201e+03 1.000000000000000000e+00
2.608409351785976014e+03 1.778279410038922759e+00
2.850419516943791677e+03 3.162277660168379523e+00
3.086861795487761810e+03 5.623413251903491172e+00
3.325060644415294064e+03 1.000000000000000000e+01
3.572200474168142591e+03 1.778279410038922848e+01
3.836883079098398412e+03 3.162277660168379256e+01
4.124112829070260887e+03 5.623413251903490817e+01
4.440556406814121146e+03 1.000000000000000000e+02
4.789260934255882603e+03 1.778279410038922776e+02
5.188889286151766100e+03 3.162277660168379612e+02
