# Temperature (K), Pressure (bars)
1.079570775697775616e+03 3.162277660168379394e-04
1.128482033643118029e+03 5.623413251903490971e-04
1.177393294008566954e+03 1.000000000000000021e-03
1.228574887372087460e+03 1.778279410038922752e-03
1.281464029444441167e+03 3.162277660168379394e-03
1.336038527009441850e+03 5.623413251903490971e-03
1.393691158434459339e+03 1.000000000000000021e-02
1.457513304197778552e+03 1.778279410038922925e-02
1.530620743600550668e+03 3.162277660168379134e-02
1.618058835317319108e+03 5.623413251903491145e-02
1.727700251366784414e+03 1.000000000000000056e-01
1.862307535689089036e+03 1.778279410038922925e-01
2.018009914578514554e+03 3.162277660168379412e-01
2.214279147122958420e+03 5.623413251903490728e-01
2.459733721268029967e+03 1.000000000000000000e+00
2.708150525106617351e+03 1.778279410038922759e+00
2.939332244228048239e+03 3.162277660168379523e+00
3.169316977134818899e+03 5.623413251903491172e+00
3.404906914059665723e+03 1.000000000000000000e+01
3.651838386531946071e+03 1.778279410038922848e+01
3.917662270633457865e+03 3.162277660168379256e+01
4.207994265466449178e+03 5.623413251903490817e+01
4.529738537446925875e+03 1.000000000000000000e+02
4.885978547925191378e+03 1.778279410038922776e+02
5.296545598660567521e+03 3.162277660168379612e+02
