# Temperature (K), Pressure (bars)
9.740676080966793506e+02 3.162277660168379394e-03
1.014314027161045715e+03 5.623413251903490971e-03
1.054560445976734627e+03 1.000000000000000021e-02
1.092628024358728453e+03 1.778279410038922925e-02
1.129807489098772294e+03 3.162277660168379134e-02
1.168383916290531033e+03 5.623413251903491145e-02
1.210095816250094686e+03 1.000000000000000056e-01
1.257301619763491317e+03 1.778279410038922925e-01
1.312292787449843900e+03 3.162277660168379412e-01
1.381744473166791977e+03 5.623413251903490728e-01
1.477941875585230946e+03 1.000000000000000000e+00
1.606802998305433675e+03 1.778279410038922759e+00
1.776201940157431636e+03 3.162277660168379523e+00
2.010255480333521064e+03 5.623413251903491172e+00
2.305372070617011559e+03 1.000000000000000000e+01
2.616740706423636311e+03 1.778279410038922848e+01
2.927031773665263245e+03 3.162277660168379256e+01
3.238374164209976243e+03 5.623413251903490817e+01
3.555908208580644441e+03 1.000000000000000000e+02
3.884936973243482043e+03 1.778279410038922776e+02
4.239006133499116004e+03 3.162277660168379612e+02
