# Temperature (K), Pressure (bars)
1.019238154532720614e+03 3.162277660168379394e-04
1.074690676562763201e+03 5.623413251903490971e-04
1.130143200145878609e+03 1.000000000000000021e-03
1.183741264033166317e+03 1.778279410038922752e-03
1.237735639622943381e+03 3.162277660168379394e-03
1.292995502575174896e+03 5.623413251903490971e-03
1.350451407792805185e+03 1.000000000000000021e-02
1.411561512156788467e+03 1.778279410038922925e-02
1.482979904286749615e+03 3.162277660168379134e-02
1.577561960335070125e+03 5.623413251903491145e-02
1.707118620617498436e+03 1.000000000000000056e-01
1.873293747625077685e+03 1.778279410038922925e-01
2.082729283037944697e+03 3.162277660168379412e-01
2.332348059981580718e+03 5.623413251903490728e-01
2.579658440104216879e+03 1.000000000000000000e+00
2.807061983653459265e+03 1.778279410038922759e+00
3.029630496314790435e+03 3.162277660168379523e+00
3.254232710324665732e+03 5.623413251903491172e+00
3.486531956227105638e+03 1.000000000000000000e+01
3.732313258828397466e+03 1.778279410038922848e+01
3.999337294364502213e+03 3.162277660168379256e+01
4.292876862680952399e+03 5.623413251903490817e+01
4.619926556902344601e+03 1.000000000000000000e+02
4.983551315849103048e+03 1.778279410038922776e+02
5.404841779721806233e+03 3.162277660168379612e+02
