# Temperature (K), Pressure (bars)
1.396731354358455974e+03 1.778279410038922901e-05
1.434004974104530675e+03 3.162277660168379530e-05
1.471278596897093848e+03 5.623413251903490700e-05
1.544051429579209298e+03 1.000000000000000048e-04
1.621207377970092693e+03 1.778279410038922698e-04
1.678527124716841172e+03 3.162277660168379394e-04
1.727248226863431000e+03 5.623413251903490971e-04
1.773187729752283758e+03 1.000000000000000021e-03
1.818908573672188140e+03 1.778279410038922752e-03
1.866578097950596202e+03 3.162277660168379394e-03
1.915615343717643100e+03 5.623413251903490971e-03
1.966658326105496371e+03 1.000000000000000021e-02
2.021477871877885491e+03 1.778279410038922925e-02
2.081649310260351740e+03 3.162277660168379134e-02
2.152045859038605613e+03 5.623413251903491145e-02
2.235379134120907565e+03 1.000000000000000056e-01
2.349183335033978437e+03 1.778279410038922925e-01
2.514596854405415797e+03 3.162277660168379412e-01
2.706112112893218182e+03 5.623413251903490728e-01
2.898470455814127945e+03 1.000000000000000000e+00
3.095570500105904102e+03 1.778279410038922759e+00
3.301333733435988051e+03 3.162277660168379523e+00
3.518755204810418491e+03 5.623413251903491172e+00
3.751157895914632718e+03 1.000000000000000000e+01
4.003145120197946653e+03 1.778279410038922848e+01
4.282040564257727056e+03 3.162277660168379256e+01
4.594292058103906129e+03 5.623413251903490817e+01
4.948237609725208131e+03 1.000000000000000000e+02
5.348211944885900266e+03 1.778279410038922776e+02
5.819974514352897131e+03 3.162277660168379612e+02
