# Temperature (K), Pressure (bars)
9.230036752741012833e+02 5.623413251903490700e-05
9.818156534936213120e+02 1.000000000000000048e-04
1.040627632388347592e+03 1.778279410038922698e-04
1.091629703935868292e+03 3.162277660168379394e-04
1.139607124229338524e+03 5.623413251903490971e-04
1.187605054217120141e+03 1.000000000000000021e-03
1.229867246621847244e+03 1.778279410038922752e-03
1.264005092883007137e+03 3.162277660168379394e-03
1.294879487192400802e+03 5.623413251903490971e-03
1.328661225444222282e+03 1.000000000000000021e-02
1.361751307565017214e+03 1.778279410038922925e-02
1.401437744228013116e+03 3.162277660168379134e-02
1.482575494324820284e+03 5.623413251903491145e-02
1.613605539118340857e+03 1.000000000000000056e-01
1.772874992697070638e+03 1.778279410038922925e-01
1.951561111247925510e+03 3.162277660168379412e-01
2.167450219714009563e+03 5.623413251903490728e-01
2.424107143165535035e+03 1.000000000000000000e+00
2.678873435565220916e+03 1.778279410038922759e+00
2.914876837596870246e+03 3.162277660168379523e+00
3.147438226332293198e+03 5.623413251903491172e+00
3.383772480336094304e+03 1.000000000000000000e+01
3.630590070077723340e+03 1.778279410038922848e+01
3.896274473875462263e+03 3.162277660168379256e+01
4.185988609321694639e+03 5.623413251903490817e+01
4.506554824532505336e+03 1.000000000000000000e+02
4.861120902407159519e+03 1.778279410038922776e+02
5.268800649525269364e+03 3.162277660168379612e+02
