# Temperature (K), Pressure (bars)
9.282388897063298145e+02 5.623413251903490971e-04
9.711384042631669899e+02 1.000000000000000021e-03
1.014037919854609186e+03 1.778279410038922752e-03
1.057334966598339406e+03 3.162277660168379394e-03
1.102335531379800159e+03 5.623413251903490971e-03
1.148992657984937750e+03 1.000000000000000021e-02
1.197749555960277348e+03 1.778279410038922925e-02
1.249948513464076541e+03 3.162277660168379134e-02
1.307453524448873850e+03 5.623413251903491145e-02
1.383100210184458774e+03 1.000000000000000056e-01
1.511396674630905409e+03 1.778279410038922925e-01
1.693881719554169649e+03 3.162277660168379412e-01
1.912016508356351096e+03 5.623413251903490728e-01
2.171421636094019050e+03 1.000000000000000000e+00
2.444101649538565198e+03 1.778279410038922759e+00
2.702754537346662346e+03 3.162277660168379523e+00
2.953096079826840651e+03 5.623413251903491172e+00
3.200866079996025746e+03 1.000000000000000000e+01
3.453324802653596635e+03 1.778279410038922848e+01
3.719488571139018859e+03 3.162277660168379256e+01
4.005248675642693797e+03 5.623413251903490817e+01
4.317439767801004564e+03 1.000000000000000000e+02
4.659200513295299970e+03 1.778279410038922776e+02
5.048190728364023016e+03 3.162277660168379612e+02
