# Temperature (K), Pressure (bars)
1.558938779271098838e+03 9.999999999999999547e-07
1.586894643719724172e+03 1.778279410038922901e-06
1.614850508168349734e+03 3.162277660168379191e-06
1.648139606958781087e+03 5.623413251903491208e-06
1.690538528599298843e+03 1.000000000000000082e-05
1.761010880918779321e+03 1.778279410038922901e-05
1.835216194706044917e+03 3.162277660168379530e-05
1.889638208267214850e+03 5.623413251903490700e-05
1.936076471492732480e+03 1.000000000000000048e-04
1.978508319760334643e+03 1.778279410038922698e-04
2.017252639604743763e+03 3.162277660168379394e-04
2.053371006906457296e+03 5.623413251903490971e-04
2.086723953947594055e+03 1.000000000000000021e-03
2.119149220648001574e+03 1.778279410038922752e-03
2.152565190316542157e+03 3.162277660168379394e-03
2.188835381110906383e+03 5.623413251903490971e-03
2.230817244463307816e+03 1.000000000000000021e-02
2.282286383261216542e+03 1.778279410038922925e-02
2.348401660889511732e+03 3.162277660168379134e-02
2.450963472774294587e+03 5.623413251903491145e-02
2.598544869441389437e+03 1.000000000000000056e-01
2.761278533239297758e+03 1.778279410038922925e-01
2.926687067241569821e+03 3.162277660168379412e-01
3.102912272483968536e+03 5.623413251903490728e-01
3.290346264583368338e+03 1.000000000000000000e+00
3.489064790333355177e+03 1.778279410038922759e+00
3.701338171226839677e+03 3.162277660168379523e+00
3.931514906753772721e+03 5.623413251903491172e+00
4.185142460272368226e+03 1.000000000000000000e+01
4.468911894660576763e+03 1.778279410038922848e+01
4.791540535889490457e+03 3.162277660168379256e+01
5.167973477424578959e+03 5.623413251903490817e+01
5.611186893570502434e+03 1.000000000000000000e+02
6.143757890447011050e+03 1.778279410038922776e+02
6.799840719185727721e+03 3.162277660168379612e+02
