# Temperature (K), Pressure (bars)
8.455579886809990739e+02 1.778279410038922901e-05
8.967492986526110599e+02 3.162277660168379530e-05
9.479406083692788343e+02 5.623413251903490700e-05
9.956582355597321339e+02 1.000000000000000048e-04
1.044523710683354693e+03 1.778279410038922698e-04
1.099090272797527405e+03 3.162277660168379394e-04
1.156150032824672735e+03 5.623413251903490971e-04
1.208816848304908945e+03 1.000000000000000021e-03
1.251978167109195283e+03 1.778279410038922752e-03
1.289607678471390727e+03 3.162277660168379394e-03
1.332389779588638021e+03 5.623413251903490971e-03
1.380595483806595212e+03 1.000000000000000021e-02
1.466140930516008893e+03 1.778279410038922925e-02
1.635490022705152796e+03 3.162277660168379134e-02
1.859097434172316298e+03 5.623413251903491145e-02
2.089867096880292593e+03 1.000000000000000056e-01
2.313768231086575724e+03 1.778279410038922925e-01
2.525036283777931203e+03 3.162277660168379412e-01
2.727282941939689408e+03 5.623413251903490728e-01
2.926579249032374264e+03 1.000000000000000000e+00
3.127362961516302221e+03 1.778279410038922759e+00
3.333578910456468748e+03 3.162277660168379523e+00
3.549870211845008271e+03 5.623413251903491172e+00
3.781314008666259269e+03 1.000000000000000000e+01
4.033303597086122409e+03 1.778279410038922848e+01
4.313887217152877383e+03 3.162277660168379256e+01
4.628696431480686442e+03 5.623413251903490817e+01
4.986125463918295281e+03 1.000000000000000000e+02
5.390071749499487851e+03 1.778279410038922776e+02
5.867135818059899975e+03 3.162277660168379612e+02
