# Temperature (K), Pressure (bars)
1.109771129416808208e+03 1.778279410038922901e-05
1.144201148589361537e+03 3.162277660168379530e-05
1.178631177547892776e+03 5.623413251903490700e-05
1.242543301512669814e+03 1.000000000000000048e-04
1.335852193871365671e+03 1.778279410038922698e-04
1.469855443811689838e+03 3.162277660168379394e-04
1.609457168197831152e+03 5.623413251903490971e-04
1.708731628451122333e+03 1.000000000000000021e-03
1.777836490123409021e+03 1.778279410038922752e-03
1.833531816137175156e+03 3.162277660168379394e-03
1.878057541232970834e+03 5.623413251903490971e-03
1.915200370622301989e+03 1.000000000000000021e-02
1.948668987868520844e+03 1.778279410038922925e-02
1.981766241253056023e+03 3.162277660168379134e-02
2.018505664624324027e+03 5.623413251903491145e-02
2.064581577513756201e+03 1.000000000000000056e-01
2.121772009843644355e+03 1.778279410038922925e-01
2.196253111561282822e+03 3.162277660168379412e-01
2.284709396655184264e+03 5.623413251903490728e-01
2.420377232321196516e+03 1.000000000000000000e+00
2.645876390554166392e+03 1.778279410038922759e+00
2.897614778157726960e+03 3.162277660168379523e+00
3.131732913539127821e+03 5.623413251903491172e+00
3.369539272845753658e+03 1.000000000000000000e+01
3.617871929622265725e+03 1.778279410038922848e+01
3.883671777606045907e+03 3.162277660168379256e+01
4.173052627684186518e+03 5.623413251903490817e+01
4.492923359657312176e+03 1.000000000000000000e+02
4.846358044921446890e+03 1.778279410038922776e+02
5.252708455662901542e+03 3.162277660168379612e+02
