# Temperature (K), Pressure (bars)
8.586460940410996727e+02 3.162277660168379394e-04
9.028899656348960434e+02 5.623413251903490971e-04
9.471338384689603345e+02 1.000000000000000021e-03
9.916931990913782329e+02 1.778279410038922752e-03
1.036428098715652823e+03 3.162277660168379394e-03
1.081477251302100285e+03 5.623413251903490971e-03
1.128307045977049029e+03 1.000000000000000021e-02
1.181155499159237934e+03 1.778279410038922925e-02
1.243625179895704150e+03 3.162277660168379134e-02
1.331368344205703124e+03 5.623413251903491145e-02
1.488371034361231068e+03 1.000000000000000056e-01
1.723961769146558936e+03 1.778279410038922925e-01
1.990046211218345661e+03 3.162277660168379412e-01
2.253811794118458238e+03 5.623413251903490728e-01
2.506362286267985382e+03 1.000000000000000000e+00
2.744222319010817955e+03 1.778279410038922759e+00
2.972599893780156890e+03 3.162277660168379523e+00
3.199319062425540778e+03 5.623413251903491172e+00
3.431850221063356003e+03 1.000000000000000000e+01
3.676815498408291205e+03 1.778279410038922848e+01
3.942687251721539269e+03 3.162277660168379256e+01
4.233862076632413846e+03 5.623413251903490817e+01
4.557129483834299208e+03 1.000000000000000000e+02
4.915912490700811759e+03 1.778279410038922776e+02
5.329636408628886784e+03 3.162277660168379612e+02
