# Temperature (K), Pressure (bars)
8.979659312916957106e+02 1.000000000000000048e-04
9.513737978341932831e+02 1.778279410038922698e-04
1.004781681690747178e+03 3.162277660168379394e-04
1.056635587892995545e+03 5.623413251903490971e-04
1.107664942427420328e+03 1.000000000000000021e-03
1.159542134787267969e+03 1.778279410038922752e-03
1.214314128567694297e+03 3.162277660168379394e-03
1.276113891350927815e+03 5.623413251903490971e-03
1.353506281804812716e+03 1.000000000000000021e-02
1.487882682066006282e+03 1.778279410038922925e-02
1.709037280728481619e+03 3.162277660168379134e-02
1.967956243239965715e+03 5.623413251903491145e-02
2.214318583430796025e+03 1.000000000000000056e-01
2.439177968637752201e+03 1.778279410038922925e-01
2.645056670652388675e+03 3.162277660168379412e-01
2.839988720394097982e+03 5.623413251903490728e-01
3.031139874069478992e+03 1.000000000000000000e+00
3.224743257788988558e+03 1.778279410038922759e+00
3.426384325604988135e+03 3.162277660168379523e+00
3.641028296816720740e+03 5.623413251903491172e+00
3.873419422514890812e+03 1.000000000000000000e+01
4.128613725253041594e+03 1.778279410038922848e+01
4.412531845408107984e+03 3.162277660168379256e+01
4.732946849183341328e+03 5.623413251903490817e+01
5.104550107331052459e+03 1.000000000000000000e+02
5.535261471679095848e+03 1.778279410038922776e+02
6.041939400119921629e+03 3.162277660168379612e+02
