# Temperature (K), Pressure (bars)
2.239261610163136083e+03 9.999999999999999547e-07
2.254672393635504250e+03 1.778279410038922901e-06
2.270083177107873325e+03 3.162277660168379191e-06
2.301927418263388518e+03 5.623413251903491208e-06
2.344372613976036519e+03 1.000000000000000082e-05
2.390578549862957971e+03 1.778279410038922901e-05
2.439650051270069525e+03 3.162277660168379530e-05
2.489623484412365087e+03 5.623413251903490700e-05
2.538473406208988763e+03 1.000000000000000048e-04
2.584981264449722858e+03 1.778279410038922698e-04
2.628486113724350616e+03 3.162277660168379394e-04
2.669177870555457048e+03 5.623413251903490971e-04
2.709325851348397464e+03 1.000000000000000021e-03
2.753207462088040302e+03 1.778279410038922752e-03
2.804949292933443758e+03 3.162277660168379394e-03
2.868227015216119071e+03 5.623413251903490971e-03
2.943763113301056364e+03 1.000000000000000021e-02
3.033655235304895996e+03 1.778279410038922925e-02
3.151718048675778391e+03 3.162277660168379134e-02
3.310449102496671912e+03 5.623413251903491145e-02
3.497158505098279420e+03 1.000000000000000056e-01
3.722821005853622864e+03 1.778279410038922925e-01
3.980053008519703781e+03 3.162277660168379412e-01
4.311437394891921031e+03 5.623413251903490728e-01
4.783626267414458198e+03 1.000000000000000000e+00
5.530529373215016676e+03 1.778279410038922759e+00
6.693665676472787709e+03 3.162277660168379523e+00
8.268157186659977015e+03 5.623413251903491172e+00
9.976742245990286392e+03 1.000000000000000000e+01
1.000000000000000000e+04 1.778279410038922848e+01
1.000000000000000000e+04 3.162277660168379256e+01
1.000000000000000000e+04 5.623413251903490817e+01
1.000000000000000000e+04 1.000000000000000000e+02
1.000000000000000000e+04 1.778279410038922776e+02
1.000000000000000000e+04 3.162277660168379612e+02
