# Temperature (K), Pressure (bars)
8.022247045747227503e+02 1.000000000000000082e-05
8.563799030861476922e+02 1.778279410038922901e-05
9.105351016241572779e+02 3.162277660168379530e-05
9.578090984726009083e+02 5.623413251903490700e-05
1.001666235232023951e+03 1.000000000000000048e-04
1.050696600771673502e+03 1.778279410038922698e-04
1.106001177060440568e+03 3.162277660168379394e-04
1.161873706435408621e+03 5.623413251903490971e-04
1.211760927565530665e+03 1.000000000000000021e-03
1.252290280394272713e+03 1.778279410038922752e-03
1.287648712922630011e+03 3.162277660168379394e-03
1.328764333246282149e+03 5.623413251903490971e-03
1.374570179354453330e+03 1.000000000000000021e-02
1.438875513681627581e+03 1.778279410038922925e-02
1.585264238606378512e+03 3.162277660168379134e-02
1.820631000298889148e+03 5.623413251903491145e-02
2.071597813981674790e+03 1.000000000000000056e-01
2.302745279423406828e+03 1.778279410038922925e-01
2.518544574940252460e+03 3.162277660168379412e-01
2.723803586900004120e+03 5.623413251903490728e-01
2.924377463854953476e+03 1.000000000000000000e+00
3.125040706460277306e+03 1.778279410038922759e+00
3.330568549174922737e+03 3.162277660168379523e+00
3.546149891755123917e+03 5.623413251903491172e+00
3.776966324082704887e+03 1.000000000000000000e+01
4.028399731424111451e+03 1.778279410038922848e+01
4.308573228692091106e+03 3.162277660168379256e+01
4.622874113177272193e+03 5.623413251903490817e+01
4.979614405032653849e+03 1.000000000000000000e+02
5.382678922382648125e+03 1.778279410038922776e+02
5.858556201785953817e+03 3.162277660168379612e+02
