# Temperature (K), Pressure (bars)
8.573382701378690172e+02 5.623413251903490971e-04
9.027386306326635577e+02 1.000000000000000021e-03
9.481389921223978945e+02 1.778279410038922752e-03
9.929485993445326812e+02 3.162277660168379394e-03
1.038194271575264793e+03 5.623413251903490971e-03
1.084410246669277740e+03 1.000000000000000021e-02
1.132123079983653497e+03 1.778279410038922925e-02
1.183049752665609503e+03 3.162277660168379134e-02
1.240970680737530984e+03 5.623413251903491145e-02
1.310514661031035530e+03 1.000000000000000056e-01
1.403086661133847656e+03 1.778279410038922925e-01
1.541008266969231727e+03 3.162277660168379412e-01
1.729309822565294780e+03 5.623413251903490728e-01
1.965462314435533699e+03 1.000000000000000000e+00
2.242369527298682442e+03 1.778279410038922759e+00
2.523728390516474974e+03 3.162277660168379523e+00
2.790732587585941474e+03 5.623413251903491172e+00
3.051223701657688252e+03 1.000000000000000000e+01
3.311689579285743548e+03 1.778279410038922848e+01
3.581421922258565701e+03 3.162277660168379256e+01
3.866923280605148648e+03 5.623413251903490817e+01
4.175312988656140988e+03 1.000000000000000000e+02
4.510118440826366168e+03 1.778279410038922776e+02
4.887871640956861484e+03 3.162277660168379612e+02
