# Temperature (K), Pressure (bars)
1.567858987122370536e+03 1.000000000000000048e-04
1.585254969105369582e+03 1.778279410038922698e-04
1.602650953314371236e+03 3.162277660168379394e-04
1.624866540716504915e+03 5.623413251903490971e-04
1.652508248900938497e+03 1.000000000000000021e-03
1.686463807993776754e+03 1.778279410038922752e-03
1.726984002255056339e+03 3.162277660168379394e-03
1.772499319095887131e+03 5.623413251903490971e-03
1.822661816290096112e+03 1.000000000000000021e-02
1.876378769757228383e+03 1.778279410038922925e-02
1.932601231289270800e+03 3.162277660168379134e-02
1.993572216153196678e+03 5.623413251903491145e-02
2.061399482955092481e+03 1.000000000000000056e-01
2.143795713467979112e+03 1.778279410038922925e-01
2.241060708759629506e+03 3.162277660168379412e-01
2.379055473790097949e+03 5.623413251903490728e-01
2.588150517184375985e+03 1.000000000000000000e+00
2.819499754937573925e+03 1.778279410038922759e+00
3.039173483249958281e+03 3.162277660168379523e+00
3.262728921287115099e+03 5.623413251903491172e+00
3.495896128440374014e+03 1.000000000000000000e+01
3.743127390754225871e+03 1.778279410038922848e+01
4.010945899016513067e+03 3.162277660168379256e+01
4.305506484237477707e+03 5.623413251903490817e+01
4.633914424960665201e+03 1.000000000000000000e+02
4.999786702960102048e+03 1.778279410038922776e+02
5.423624659521891772e+03 3.162277660168379612e+02
