# Temperature (K), Pressure (bars)
2.279621000264552094e+03 9.999999999999999547e-07
2.313453368788021635e+03 1.778279410038922901e-06
2.347285737475777751e+03 3.162277660168379191e-06
2.381366596646267681e+03 5.623413251903491208e-06
2.414779182179707277e+03 1.000000000000000082e-05
2.446060316611256894e+03 1.778279410038922901e-05
2.474357318707479862e+03 3.162277660168379530e-05
2.500271600639475309e+03 5.623413251903490700e-05
2.526124249405341288e+03 1.000000000000000048e-04
2.555465345289330799e+03 1.778279410038922698e-04
2.592509447929561702e+03 3.162277660168379394e-04
2.641031578620882101e+03 5.623413251903490971e-04
2.703220278408588456e+03 1.000000000000000021e-03
2.779896723866384491e+03 1.778279410038922752e-03
2.871135229774321488e+03 3.162277660168379394e-03
2.976578875519405301e+03 5.623413251903490971e-03
3.095322666116118398e+03 1.000000000000000021e-02
3.227961182648813974e+03 1.778279410038922925e-02
3.379456179409829019e+03 3.162277660168379134e-02
3.570796887646287814e+03 5.623413251903491145e-02
3.838409083410254425e+03 1.000000000000000056e-01
4.228099326887438110e+03 1.778279410038922925e-01
4.901672301477850851e+03 3.162277660168379412e-01
5.954230114133371899e+03 5.623413251903490728e-01
7.395194352781064481e+03 1.000000000000000000e+00
8.941501084569363229e+03 1.778279410038922759e+00
1.044752235715260576e+04 3.162277660168379523e+00
1.215319811700371247e+04 5.623413251903491172e+00
1.431924452070771076e+04 1.000000000000000000e+01
1.706493102549662945e+04 1.778279410038922848e+01
2.053053632950069368e+04 3.162277660168379256e+01
2.487526289644866119e+04 5.623413251903490817e+01
3.026454055114571383e+04 1.000000000000000000e+02
3.684257475222973153e+04 1.778279410038922776e+02
4.469010483891605691e+04 3.162277660168379612e+02
