# Temperature (K), Pressure (bars)
1.549930455973696553e+03 9.999999999999999547e-07
1.558990816130905387e+03 1.778279410038922901e-06
1.568051176347667933e+03 3.162277660168379191e-06
1.585114421164632859e+03 5.623413251903491208e-06
1.612339252150661196e+03 1.000000000000000082e-05
1.645324826440600646e+03 1.778279410038922901e-05
1.682508247444160361e+03 3.162277660168379530e-05
1.724308149510681687e+03 5.623413251903490700e-05
1.766506280650550252e+03 1.000000000000000048e-04
1.809183667342148283e+03 1.778279410038922698e-04
1.853480011693391134e+03 3.162277660168379394e-04
1.898674824222078769e+03 5.623413251903490971e-04
1.946071300380805042e+03 1.000000000000000021e-03
1.996333379470295085e+03 1.778279410038922752e-03
2.050643349823209974e+03 3.162277660168379394e-03
2.109513641470867697e+03 5.623413251903490971e-03
2.176412420786582061e+03 1.000000000000000021e-02
2.252335208159086051e+03 1.778279410038922925e-02
2.353755607148087620e+03 3.162277660168379134e-02
2.497375088091743692e+03 5.623413251903491145e-02
2.655802798169755988e+03 1.000000000000000056e-01
2.812522521423356011e+03 1.778279410038922925e-01
2.977342325244237145e+03 3.162277660168379412e-01
3.153005786695770894e+03 5.623413251903490728e-01
3.340277372668177577e+03 1.000000000000000000e+00
3.539973311500690670e+03 1.778279410038922759e+00
3.754540287838949098e+03 3.162277660168379523e+00
3.988365839689734457e+03 5.623413251903491172e+00
4.247251191706262034e+03 1.000000000000000000e+01
4.538320597149962850e+03 1.778279410038922848e+01
4.871074789749369302e+03 3.162277660168379256e+01
5.261484535814338415e+03 5.623413251903490817e+01
5.724677283298694419e+03 1.000000000000000000e+02
6.286912519813033214e+03 1.778279410038922776e+02
6.988307296426823996e+03 3.162277660168379612e+02
