# Temperature (K), Pressure (bars)
2.157524770901141892e+03 9.999999999999999547e-07
2.175482857819584751e+03 1.778279410038922901e-06
2.193440944743547334e+03 3.162277660168379191e-06
2.210560058154174840e+03 5.623413251903491208e-06
2.229259579637910520e+03 1.000000000000000082e-05
2.249205916886507566e+03 1.778279410038922901e-05
2.270052757845517590e+03 3.162277660168379530e-05
2.292047235566630661e+03 5.623413251903490700e-05
2.314761637494237220e+03 1.000000000000000048e-04
2.337799165022409397e+03 1.778279410038922698e-04
2.361626546677101942e+03 3.162277660168379394e-04
2.388315991248444789e+03 5.623413251903490971e-04
2.419944937642739205e+03 1.000000000000000021e-03
2.458321645353668828e+03 1.778279410038922752e-03
2.504519678579726133e+03 3.162277660168379394e-03
2.561458143748555813e+03 5.623413251903490971e-03
2.629812080528667138e+03 1.000000000000000021e-02
2.715824921820273630e+03 1.778279410038922925e-02
2.829161635229744206e+03 3.162277660168379134e-02
2.960948812042728605e+03 5.623413251903491145e-02
3.104892617720368435e+03 1.000000000000000056e-01
3.266634533259783439e+03 1.778279410038922925e-01
3.449632447906072684e+03 3.162277660168379412e-01
3.656663955721655384e+03 5.623413251903490728e-01
3.889891583126625392e+03 1.000000000000000000e+00
4.154622276271491501e+03 1.778279410038922759e+00
4.461669474336289568e+03 3.162277660168379523e+00
4.816715937855420634e+03 5.623413251903491172e+00
5.263886532303640706e+03 1.000000000000000000e+01
5.861748322362979707e+03 1.778279410038922848e+01
6.724536106247353928e+03 3.162277660168379256e+01
8.016163177870105756e+03 5.623413251903490817e+01
9.771222959067690681e+03 1.000000000000000000e+02
1.190112749155972051e+04 1.778279410038922776e+02
1.443791591931993025e+04 3.162277660168379612e+02
