# Temperature (K), Pressure (bars)
2.196581245117225990e+03 9.999999999999999547e-07
2.208456800924215713e+03 1.778279410038922901e-06
2.220332356733053984e+03 3.162277660168379191e-06
2.233382331818839702e+03 5.623413251903491208e-06
2.249137572596250266e+03 1.000000000000000082e-05
2.267538841118107484e+03 1.778279410038922901e-05
2.287727122117539693e+03 3.162277660168379530e-05
2.309364185743516828e+03 5.623413251903490700e-05
2.331602807589079930e+03 1.000000000000000048e-04
2.353849435903858193e+03 1.778279410038922698e-04
2.377030631177620307e+03 3.162277660168379394e-04
2.403086235517595014e+03 5.623413251903490971e-04
2.434260712234877246e+03 1.000000000000000021e-03
2.471888726035126638e+03 1.778279410038922752e-03
2.518242636031072379e+03 3.162277660168379394e-03
2.574680884616701405e+03 5.623413251903490971e-03
2.647637630794962206e+03 1.000000000000000021e-02
2.746903319424452093e+03 1.778279410038922925e-02
2.867054359304843729e+03 3.162277660168379134e-02
3.000304195671824800e+03 5.623413251903491145e-02
3.148136775012833823e+03 1.000000000000000056e-01
3.313567658700557331e+03 1.778279410038922925e-01
3.500603133150080794e+03 3.162277660168379412e-01
3.713607722865749110e+03 5.623413251903490728e-01
3.956790888995010846e+03 1.000000000000000000e+00
4.238339638141276737e+03 1.778279410038922759e+00
4.551262555766511468e+03 3.162277660168379523e+00
4.938203423547573948e+03 5.623413251903491172e+00
5.442171657718838105e+03 1.000000000000000000e+01
6.143634433605448066e+03 1.778279410038922848e+01
7.184945709967681978e+03 3.162277660168379256e+01
8.711386464047373011e+03 5.623413251903490817e+01
1.063655882792418561e+04 1.000000000000000000e+02
1.294740571499146063e+04 1.778279410038922776e+02
1.570393779561486735e+04 3.162277660168379612e+02
