# Temperature (K), Pressure (bars)
1.129319350167668290e+03 9.999999999999999547e-07
1.131509659471789291e+03 1.778279410038922901e-06
1.133699968780455720e+03 3.162277660168379191e-06
1.141186423831173670e+03 5.623413251903491208e-06
1.154800233850829045e+03 1.000000000000000082e-05
1.174655154963897076e+03 1.778279410038922901e-05
1.201829887512897812e+03 3.162277660168379530e-05
1.235645669105778325e+03 5.623413251903490700e-05
1.275569134612383095e+03 1.000000000000000048e-04
1.321279527596439038e+03 1.778279410038922698e-04
1.371863776514075653e+03 3.162277660168379394e-04
1.428411989113656091e+03 5.623413251903490971e-04
1.490885273332128463e+03 1.000000000000000021e-03
1.560612739018870343e+03 1.778279410038922752e-03
1.637056251687506119e+03 3.162277660168379394e-03
1.728280616526944868e+03 5.623413251903490971e-03
1.843517154591208055e+03 1.000000000000000021e-02
1.978180090646311783e+03 1.778279410038922925e-02
2.139213164316845905e+03 3.162277660168379134e-02
2.320512936593879203e+03 5.623413251903491145e-02
2.499925825564950628e+03 1.000000000000000056e-01
2.674106629192560831e+03 1.778279410038922925e-01
2.848483385487288615e+03 3.162277660168379412e-01
3.027020311533834501e+03 5.623413251903490728e-01
3.212535429033084711e+03 1.000000000000000000e+00
3.407343004885015034e+03 1.778279410038922759e+00
3.614376017168792259e+03 3.162277660168379523e+00
3.837765392352230265e+03 5.623413251903491172e+00
4.082565316538451043e+03 1.000000000000000000e+01
4.354742563398835955e+03 1.778279410038922848e+01
4.661666359969130099e+03 3.162277660168379256e+01
5.013253643679197921e+03 5.623413251903490817e+01
5.426882328735649935e+03 1.000000000000000000e+02
5.916672383354292833e+03 1.778279410038922776e+02
6.508619885503071600e+03 3.162277660168379612e+02
