# Temperature (K), Pressure (bars)
1.142755029017355355e+03 9.999999999999999547e-07
1.164823055718893556e+03 1.778279410038922901e-06
1.186891082422705040e+03 3.162277660168379191e-06
1.215611699432985915e+03 5.623413251903491208e-06
1.250686355486708635e+03 1.000000000000000082e-05
1.291377645246481961e+03 1.778279410038922901e-05
1.337293050915744516e+03 3.162277660168379530e-05
1.387741550103022291e+03 5.623413251903490700e-05
1.443606281441296915e+03 1.000000000000000048e-04
1.504985982357098919e+03 1.778279410038922698e-04
1.573394011547992704e+03 3.162277660168379394e-04
1.649798397605770333e+03 5.623413251903490971e-04
1.739799879053074164e+03 1.000000000000000021e-03
1.855137024483011828e+03 1.778279410038922752e-03
1.997173645998637767e+03 3.162277660168379394e-03
2.156107821315729780e+03 5.623413251903490971e-03
2.317406678964804087e+03 1.000000000000000021e-02
2.474795092052422660e+03 1.778279410038922925e-02
2.631949403869514754e+03 3.162277660168379134e-02
2.791843834710149167e+03 5.623413251903491145e-02
2.956918801610881928e+03 1.000000000000000056e-01
3.129381387806608473e+03 1.778279410038922925e-01
3.311107296931581914e+03 3.162277660168379412e-01
3.503973164416353484e+03 5.623413251903490728e-01
3.711096163582203644e+03 1.000000000000000000e+00
3.937625165385274613e+03 1.778279410038922759e+00
4.190502028795312071e+03 3.162277660168379523e+00
4.478823412367648416e+03 5.623413251903491172e+00
4.814175581754890118e+03 1.000000000000000000e+01
5.217893437375139001e+03 1.778279410038922848e+01
5.720725241545024801e+03 3.162277660168379256e+01
6.374440079986932687e+03 5.623413251903490817e+01
7.263147131172919217e+03 1.000000000000000000e+02
8.525841726966478745e+03 1.778279410038922776e+02
1.025649665261591690e+04 3.162277660168379612e+02
