# Temperature (K), Pressure (bars)
9.907409220279773763e+02 3.162277660168379394e-04
1.035139381472580226e+03 5.623413251903490971e-04
1.079537843021764047e+03 1.000000000000000021e-03
1.124754279389094108e+03 1.778279410038922752e-03
1.170677219409665213e+03 3.162277660168379394e-03
1.218842633946112528e+03 5.623413251903490971e-03
1.269282564423531312e+03 1.000000000000000021e-02
1.321928135735546221e+03 1.778279410038922925e-02
1.378559943497394670e+03 3.162277660168379134e-02
1.443641432693180150e+03 5.623413251903491145e-02
1.528059132165734127e+03 1.000000000000000056e-01
1.641976975629877643e+03 1.778279410038922925e-01
1.789266493255021942e+03 3.162277660168379412e-01
1.971668959715129859e+03 5.623413251903490728e-01
2.199220246870140727e+03 1.000000000000000000e+00
2.463932263017267815e+03 1.778279410038922759e+00
2.726607346589619283e+03 3.162277660168379523e+00
2.974627981573688885e+03 5.623413251903491172e+00
3.221046474760098135e+03 1.000000000000000000e+01
3.473137996438657410e+03 1.778279410038922848e+01
3.739231667923225359e+03 3.162277660168379256e+01
4.025334023225333567e+03 5.623413251903490817e+01
4.338272359328904713e+03 1.000000000000000000e+02
4.681211011042177233e+03 1.778279410038922776e+02
5.072068074080510996e+03 3.162277660168379612e+02
