# Temperature (K), Pressure (bars)
1.842720792058349161e+03 1.778279410038922901e-05
1.852538165643664797e+03 3.162277660168379530e-05
1.862355542404827929e+03 5.623413251903490700e-05
1.878661313674450867e+03 1.000000000000000048e-04
1.903468273814311033e+03 1.778279410038922698e-04
1.934915190973128801e+03 3.162277660168379394e-04
1.971868570171966667e+03 5.623413251903490971e-04
2.015652517809191977e+03 1.000000000000000021e-03
2.063218589905829958e+03 1.778279410038922752e-03
2.109751768217563495e+03 3.162277660168379394e-03
2.153672043654464687e+03 5.623413251903490971e-03
2.193825358762101587e+03 1.000000000000000021e-02
2.229246283616233995e+03 1.778279410038922925e-02
2.262560182725922914e+03 3.162277660168379134e-02
2.297094221543645745e+03 5.623413251903491145e-02
2.345034445905257144e+03 1.000000000000000056e-01
2.409293209833949277e+03 1.778279410038922925e-01
2.501033136810472115e+03 3.162277660168379412e-01
2.652599851009265421e+03 5.623413251903490728e-01
2.843627236418029497e+03 1.000000000000000000e+00
3.041144714392421520e+03 1.778279410038922759e+00
3.247109651413732990e+03 3.162277660168379523e+00
3.465027180788109945e+03 5.623413251903491172e+00
3.697620544348849762e+03 1.000000000000000000e+01
3.948671573931515923e+03 1.778279410038922848e+01
4.224640106495538930e+03 3.162277660168379256e+01
4.532422139663054622e+03 5.623413251903490817e+01
4.880074764057407265e+03 1.000000000000000000e+02
5.271246127664046071e+03 1.778279410038922776e+02
5.731452045093132256e+03 3.162277660168379612e+02
