# Temperature (K), Pressure (bars)
8.876717946776442432e+02 3.162277660168379530e-05
9.500986698848322476e+02 5.623413251903490700e-05
1.012525546440138896e+03 1.000000000000000048e-04
1.070355643887456381e+03 1.778279410038922698e-04
1.122312894106347358e+03 3.162277660168379394e-04
1.166081144375217491e+03 5.623413251903490971e-04
1.205518113033549071e+03 1.000000000000000021e-03
1.243640761525884500e+03 1.778279410038922752e-03
1.296087091748083139e+03 3.162277660168379394e-03
1.394074037741195980e+03 5.623413251903490971e-03
1.536951485296309329e+03 1.000000000000000021e-02
1.695129579843857300e+03 1.778279410038922925e-02
1.833918481496938057e+03 3.162277660168379134e-02
1.947044296064254922e+03 5.623413251903491145e-02
2.057431949355491270e+03 1.000000000000000056e-01
2.205057988810821371e+03 1.778279410038922925e-01
2.415298649217374077e+03 3.162277660168379412e-01
2.637913585056257034e+03 5.623413251903490728e-01
2.842523558035697079e+03 1.000000000000000000e+00
3.046802783448024456e+03 1.778279410038922759e+00
3.255666855755710912e+03 3.162277660168379523e+00
3.473016503267645021e+03 5.623413251903491172e+00
3.703640416321658904e+03 1.000000000000000000e+01
3.952951285368903882e+03 1.778279410038922848e+01
4.228691970959512219e+03 3.162277660168379256e+01
4.536479897290936606e+03 5.623413251903490817e+01
4.884196347760748722e+03 1.000000000000000000e+02
5.275560990814836259e+03 1.778279410038922776e+02
5.735574338733163131e+03 3.162277660168379612e+02
