# Temperature (K), Pressure (bars)
1.341408233239633546e+03 9.999999999999999547e-07
1.419634073404179844e+03 1.778279410038922901e-06
1.497859913568726370e+03 3.162277660168379191e-06
1.575436554660775528e+03 5.623413251903491208e-06
1.645536714431870678e+03 1.000000000000000082e-05
1.707907902578089534e+03 1.778279410038922901e-05
1.767809568751761162e+03 3.162277660168379530e-05
1.831046200406931121e+03 5.623413251903490700e-05
1.897293876198179760e+03 1.000000000000000048e-04
1.965632143475685098e+03 1.778279410038922698e-04
2.039275617986914540e+03 3.162277660168379394e-04
2.122016375555667764e+03 5.623413251903490971e-04
2.219749019292749381e+03 1.000000000000000021e-03
2.333237870371182908e+03 1.778279410038922752e-03
2.456855464998629031e+03 3.162277660168379394e-03
2.587548717590831075e+03 5.623413251903490971e-03
2.726312463550337270e+03 1.000000000000000021e-02
2.876001690089706699e+03 1.778279410038922925e-02
3.041096110708098422e+03 3.162277660168379134e-02
3.232658454302405971e+03 5.623413251903491145e-02
3.417533519890807383e+03 1.000000000000000056e-01
3.628924771804528518e+03 1.778279410038922925e-01
3.874226309990690424e+03 3.162277660168379412e-01
4.151919079928098654e+03 5.623413251903490728e-01
4.511273076207421582e+03 1.000000000000000000e+00
5.023627982163544402e+03 1.778279410038922759e+00
5.808500441595958364e+03 3.162277660168379523e+00
6.984205489531507737e+03 5.623413251903491172e+00
8.601974359712552541e+03 1.000000000000000000e+01
1.000000000000000000e+04 1.778279410038922848e+01
1.000000000000000000e+04 3.162277660168379256e+01
1.000000000000000000e+04 5.623413251903490817e+01
1.000000000000000000e+04 1.000000000000000000e+02
1.000000000000000000e+04 1.778279410038922776e+02
1.000000000000000000e+04 3.162277660168379612e+02
