# Temperature (K), Pressure (bars)
8.255053347288642271e+02 1.000000000000000082e-05
8.785324711530261084e+02 1.778279410038922901e-05
9.315596090109994520e+02 3.162277660168379530e-05
9.821862081047059974e+02 5.623413251903490700e-05
1.027722659533774959e+03 1.000000000000000048e-04
1.068834670726494551e+03 1.778279410038922698e-04
1.107601954019590266e+03 3.162277660168379394e-04
1.144157176661616631e+03 5.623413251903490971e-04
1.177289357772885978e+03 1.000000000000000021e-03
1.207601168008896593e+03 1.778279410038922752e-03
1.237848692888939468e+03 3.162277660168379394e-03
1.268728715433314392e+03 5.623413251903490971e-03
1.299990065519862583e+03 1.000000000000000021e-02
1.328559873745734194e+03 1.778279410038922925e-02
1.363363764614597358e+03 3.162277660168379134e-02
1.429792929478199312e+03 5.623413251903491145e-02
1.534789950484617975e+03 1.000000000000000056e-01
1.673550900750954270e+03 1.778279410038922925e-01
1.856237990490704533e+03 3.162277660168379412e-01
2.090025031940276676e+03 5.623413251903490728e-01
2.351076155118248607e+03 1.000000000000000000e+00
2.606856943086861520e+03 1.778279410038922759e+00
2.849918134103285411e+03 3.162277660168379523e+00
3.086998793141852730e+03 5.623413251903491172e+00
3.325548311058586023e+03 1.000000000000000000e+01
3.573009256016968720e+03 1.778279410038922848e+01
3.838090816583936885e+03 3.162277660168379256e+01
4.125882784715210619e+03 5.623413251903490817e+01
4.443077509849663329e+03 1.000000000000000000e+02
4.792624301590060895e+03 1.778279410038922776e+02
5.193581441662954603e+03 3.162277660168379612e+02
