# Temperature (K), Pressure (bars)
1.912118631994278985e+03 9.999999999999999547e-07
1.934093201996259268e+03 1.778279410038922901e-06
1.956067771998240005e+03 3.162277660168379191e-06
1.982795948236192999e+03 5.623413251903491208e-06
2.016526343580052071e+03 1.000000000000000082e-05
2.053530316148984639e+03 1.778279410038922901e-05
2.089875194695385289e+03 3.162277660168379530e-05
2.124748021046578742e+03 5.623413251903490700e-05
2.159170366643053967e+03 1.000000000000000048e-04
2.195028790828949241e+03 1.778279410038922698e-04
2.234389157386604438e+03 3.162277660168379394e-04
2.279482001235730422e+03 5.623413251903490971e-04
2.331916721516754933e+03 1.000000000000000021e-03
2.392438831505958660e+03 1.778279410038922752e-03
2.460212709276042915e+03 3.162277660168379394e-03
2.535448279010844999e+03 5.623413251903490971e-03
2.625689957163106556e+03 1.000000000000000021e-02
2.736575714788717050e+03 1.778279410038922925e-02
2.864282932008271928e+03 3.162277660168379134e-02
3.007088759394289809e+03 5.623413251903491145e-02
3.168031046636835526e+03 1.000000000000000056e-01
3.349953975680740768e+03 1.778279410038922925e-01
3.554718940919792658e+03 3.162277660168379412e-01
3.784324225546508842e+03 5.623413251903490728e-01
4.044664085865000743e+03 1.000000000000000000e+00
4.348903630897353651e+03 1.778279410038922759e+00
4.697862280891681621e+03 3.162277660168379523e+00
5.149424473962103548e+03 5.623413251903491172e+00
5.783159710361821453e+03 1.000000000000000000e+01
6.754927704400343828e+03 1.778279410038922848e+01
8.201854922315213116e+03 3.162277660168379256e+01
1.003173995204470521e+04 5.623413251903490817e+01
1.220717399324431244e+04 1.000000000000000000e+02
1.486201360890391697e+04 1.778279410038922776e+02
1.802970773786157588e+04 3.162277660168379612e+02
