# Temperature (K), Pressure (bars)
2.408918554931635299e+03 1.778279410038922901e-06
2.417585567275721587e+03 3.162277660168379191e-06
2.426252590659303678e+03 5.623413251903491208e-06
2.442626022331960939e+03 1.000000000000000082e-05
2.470747400229005052e+03 1.778279410038922901e-05
2.504781151522468917e+03 3.162277660168379530e-05
2.541973993742677976e+03 5.623413251903490700e-05
2.582652520661033122e+03 1.000000000000000048e-04
2.627427773794745463e+03 1.778279410038922698e-04
2.677118320320364546e+03 3.162277660168379394e-04
2.731631795964218782e+03 5.623413251903490971e-04
2.791736984829507492e+03 1.000000000000000021e-03
2.856784710863216787e+03 1.778279410038922752e-03
2.924355749319796814e+03 3.162277660168379394e-03
2.991321593475274767e+03 5.623413251903490971e-03
3.055273422276767178e+03 1.000000000000000021e-02
3.113276873164434619e+03 1.778279410038922925e-02
3.170920930158382816e+03 3.162277660168379134e-02
3.226509935922696059e+03 5.623413251903491145e-02
3.294141020184690205e+03 1.000000000000000056e-01
3.419466828274356885e+03 1.778279410038922925e-01
3.601769706467856849e+03 3.162277660168379412e-01
3.819853250727299383e+03 5.623413251903490728e-01
4.083292893324546640e+03 1.000000000000000000e+00
4.377092791680173832e+03 1.778279410038922759e+00
4.738247623928587018e+03 3.162277660168379523e+00
5.213088140772748375e+03 5.623413251903491172e+00
5.895786809207605984e+03 1.000000000000000000e+01
6.953796396112741604e+03 1.778279410038922848e+01
8.484426927007778431e+03 3.162277660168379256e+01
1.000000000000000000e+04 5.623413251903490817e+01
1.000000000000000000e+04 1.000000000000000000e+02
1.000000000000000000e+04 1.778279410038922776e+02
1.000000000000000000e+04 3.162277660168379612e+02
