# Temperature (K), Pressure (bars)
1.067776219385499871e+03 5.623413251903491208e-06
1.131802254808249018e+03 1.000000000000000082e-05
1.195828300260889591e+03 1.778279410038922901e-05
1.275791368289628053e+03 3.162277660168379530e-05
1.409198956440898428e+03 5.623413251903490700e-05
1.534822337479718499e+03 1.000000000000000048e-04
1.609647696234984323e+03 1.778279410038922698e-04
1.663894759688407021e+03 3.162277660168379394e-04
1.714486990809142299e+03 5.623413251903490971e-04
1.764291426229104218e+03 1.000000000000000021e-03
1.808963458854791497e+03 1.778279410038922752e-03
1.845087611462074165e+03 3.162277660168379394e-03
1.878417727646686899e+03 5.623413251903490971e-03
1.912829085451168112e+03 1.000000000000000021e-02
1.950241128545886113e+03 1.778279410038922925e-02
1.992349463941297245e+03 3.162277660168379134e-02
2.046198711729522074e+03 5.623413251903491145e-02
2.111636800298608705e+03 1.000000000000000056e-01
2.207254634667019673e+03 1.778279410038922925e-01
2.371823146131649992e+03 3.162277660168379412e-01
2.580069515047237019e+03 5.623413251903490728e-01
2.789147461315541477e+03 1.000000000000000000e+00
2.997284360812176146e+03 1.778279410038922759e+00
3.209077322954397459e+03 3.162277660168379523e+00
3.428099298591250772e+03 5.623413251903491172e+00
3.659041400513545341e+03 1.000000000000000000e+01
3.907429992455995944e+03 1.778279410038922848e+01
4.180896801320715895e+03 3.162277660168379256e+01
4.485217026329978580e+03 5.623413251903490817e+01
4.828129850094645008e+03 1.000000000000000000e+02
5.213069238311994923e+03 1.778279410038922776e+02
5.664608152731383598e+03 3.162277660168379612e+02
