# Temperature (K), Pressure (bars)
2.337362557399084835e+03 9.999999999999999547e-07
2.359704005214914105e+03 1.778279410038922901e-06
2.382045453030743374e+03 3.162277660168379191e-06
2.406244544260330258e+03 5.623413251903491208e-06
2.431901316332823171e+03 1.000000000000000082e-05
2.458573099949386233e+03 1.778279410038922901e-05
2.485409761298586091e+03 3.162277660168379530e-05
2.510671156534316651e+03 5.623413251903490700e-05
2.532364982509904621e+03 1.000000000000000048e-04
2.549294644899904597e+03 1.778279410038922698e-04
2.563843430513886233e+03 3.162277660168379394e-04
2.582799436879492532e+03 5.623413251903490971e-04
2.613293210480147991e+03 1.000000000000000021e-03
2.658357045649569955e+03 1.778279410038922752e-03
2.718168694017876987e+03 3.162277660168379394e-03
2.793000849222996749e+03 5.623413251903490971e-03
2.885197580793980705e+03 1.000000000000000021e-02
2.999101727166756973e+03 1.778279410038922925e-02
3.135521590197460682e+03 3.162277660168379134e-02
3.293404356878834733e+03 5.623413251903491145e-02
3.478794368329629833e+03 1.000000000000000056e-01
3.701150026824738688e+03 1.778279410038922925e-01
3.957739529176759333e+03 3.162277660168379412e-01
4.272340179732676916e+03 5.623413251903490728e-01
4.709848792502170909e+03 1.000000000000000000e+00
5.397426910467303060e+03 1.778279410038922759e+00
6.480815575930557316e+03 3.162277660168379523e+00
8.006130322691359652e+03 5.623413251903491172e+00
9.722883513809416399e+03 1.000000000000000000e+01
1.000000000000000000e+04 1.778279410038922848e+01
1.000000000000000000e+04 3.162277660168379256e+01
1.000000000000000000e+04 5.623413251903490817e+01
1.000000000000000000e+04 1.000000000000000000e+02
1.000000000000000000e+04 1.778279410038922776e+02
1.000000000000000000e+04 3.162277660168379612e+02
