# Temperature (K), Pressure (bars)
2.134534076151557201e+03 9.999999999999999547e-07
2.149828990638878167e+03 1.778279410038922901e-06
2.165123905126199134e+03 3.162277660168379191e-06
2.183866385988234470e+03 5.623413251903491208e-06
2.204461243728755107e+03 1.000000000000000082e-05
2.226407561883913786e+03 1.778279410038922901e-05
2.251094957776542287e+03 3.162277660168379530e-05
2.279754248854480466e+03 5.623413251903490700e-05
2.313319988771075259e+03 1.000000000000000048e-04
2.350887911080976664e+03 1.778279410038922698e-04
2.390027055372671839e+03 3.162277660168379394e-04
2.428282894006932565e+03 5.623413251903490971e-04
2.463846372631631766e+03 1.000000000000000021e-03
2.495589242770723558e+03 1.778279410038922752e-03
2.523614276234257431e+03 3.162277660168379394e-03
2.549417948742869612e+03 5.623413251903490971e-03
2.576233673906190234e+03 1.000000000000000021e-02
2.607686739007423057e+03 1.778279410038922925e-02
2.649357690536126483e+03 3.162277660168379134e-02
2.704183386953015543e+03 5.623413251903491145e-02
2.791768260455293785e+03 1.000000000000000056e-01
2.929321446274808295e+03 1.778279410038922925e-01
3.089761111723685644e+03 3.162277660168379412e-01
3.257650584022941075e+03 5.623413251903490728e-01
3.442409428344803018e+03 1.000000000000000000e+00
3.646040029568752288e+03 1.778279410038922759e+00
3.869980934799831175e+03 3.162277660168379523e+00
4.117222540597508669e+03 5.623413251903491172e+00
4.393417913697247059e+03 1.000000000000000000e+01
4.707108489176375770e+03 1.778279410038922848e+01
5.071123824817836976e+03 3.162277660168379256e+01
5.502606935620076001e+03 5.623413251903490817e+01
6.025637658228050896e+03 1.000000000000000000e+02
6.678545431091968567e+03 1.778279410038922776e+02
7.523654845314815248e+03 3.162277660168379612e+02
