# Temperature (K), Pressure (bars)
1.403415006151219814e+03 9.999999999999999547e-07
1.428538799330944130e+03 1.778279410038922901e-06
1.453662592510668219e+03 3.162277660168379191e-06
1.484543032312111336e+03 5.623413251903491208e-06
1.525336305057705431e+03 1.000000000000000082e-05
1.576931274718919667e+03 1.778279410038922901e-05
1.636702168176766008e+03 3.162277660168379530e-05
1.700272081939816871e+03 5.623413251903490700e-05
1.767008049867741420e+03 1.000000000000000048e-04
1.839036177259880787e+03 1.778279410038922698e-04
1.916724782326481090e+03 3.162277660168379394e-04
2.001056598374743771e+03 5.623413251903490971e-04
2.099519036129843244e+03 1.000000000000000021e-03
2.216948337955239367e+03 1.778279410038922752e-03
2.345094635967133399e+03 3.162277660168379394e-03
2.477262738927164719e+03 5.623413251903490971e-03
2.614482535004715828e+03 1.000000000000000021e-02
2.758444543624802463e+03 1.778279410038922925e-02
2.911014341003796289e+03 3.162277660168379134e-02
3.074706095070118408e+03 5.623413251903491145e-02
3.253073437286451735e+03 1.000000000000000056e-01
3.450540991566459525e+03 1.778279410038922925e-01
3.672138595197299310e+03 3.162277660168379412e-01
3.925247414679448411e+03 5.623413251903490728e-01
4.225538403833182201e+03 1.000000000000000000e+00
4.567172357317814203e+03 1.778279410038922759e+00
5.021843036502307768e+03 3.162277660168379523e+00
5.686451742091098822e+03 5.623413251903491172e+00
6.697692246282994347e+03 1.000000000000000000e+01
8.181102258746220286e+03 1.778279410038922848e+01
9.992466373481316623e+03 3.162277660168379256e+01
1.210776166282886152e+04 5.623413251903490817e+01
1.473014291748520736e+04 1.000000000000000000e+02
1.792980698310413572e+04 1.778279410038922776e+02
2.174361405657500291e+04 3.162277660168379612e+02
