# Temperature (K), Pressure (bars)
8.259214413217207493e+02 1.000000000000000082e-05
8.737509977244524180e+02 1.778279410038922901e-05
9.215805532423603381e+02 3.162277660168379530e-05
9.649342909742690608e+02 5.623413251903490700e-05
1.008896357488274930e+03 1.000000000000000048e-04
1.059213781361693236e+03 1.778279410038922698e-04
1.113956698432943995e+03 3.162277660168379394e-04
1.167635707177180848e+03 5.623413251903490971e-04
1.214167499703445628e+03 1.000000000000000021e-03
1.251909257130455444e+03 1.778279410038922752e-03
1.286416642643512205e+03 3.162277660168379394e-03
1.326552628846935477e+03 5.623413251903490971e-03
1.375351693875153614e+03 1.000000000000000021e-02
1.429664247143430657e+03 1.778279410038922925e-02
1.550071198616366701e+03 3.162277660168379134e-02
1.781742214905122864e+03 5.623413251903491145e-02
2.044832539296603045e+03 1.000000000000000056e-01
2.283544708176800668e+03 1.778279410038922925e-01
2.505667050199455389e+03 3.162277660168379412e-01
2.714637646746768041e+03 5.623413251903490728e-01
2.916502950339683593e+03 1.000000000000000000e+00
3.116991426979879634e+03 1.778279410038922759e+00
3.321897294394677829e+03 3.162277660168379523e+00
3.536835396709253018e+03 5.623413251903491172e+00
3.767003339242850416e+03 1.000000000000000000e+01
4.017719109360212315e+03 1.778279410038922848e+01
4.297081046703445281e+03 3.162277660168379256e+01
4.610298252415492243e+03 5.623413251903490817e+01
4.965590421012339903e+03 1.000000000000000000e+02
5.366564819031969819e+03 1.778279410038922776e+02
5.839779646143369973e+03 3.162277660168379612e+02
