# Temperature (K), Pressure (bars)
1.517743932290581597e+03 1.000000000000000082e-05
1.540010952345938904e+03 1.778279410038922901e-05
1.562277976317894854e+03 3.162277660168379530e-05
1.590856083873072293e+03 5.623413251903490700e-05
1.626183177975764920e+03 1.000000000000000048e-04
1.665574894560665371e+03 1.778279410038922698e-04
1.708260192631325708e+03 3.162277660168379394e-04
1.751482023299988896e+03 5.623413251903490971e-04
1.795108105712829456e+03 1.000000000000000021e-03
1.840088017536890675e+03 1.778279410038922752e-03
1.885743656740199867e+03 3.162277660168379394e-03
1.933193464742323613e+03 5.623413251903490971e-03
1.983217785572713410e+03 1.000000000000000021e-02
2.037357163942858733e+03 1.778279410038922925e-02
2.096909588075659030e+03 3.162277660168379134e-02
2.166370827780689979e+03 5.623413251903491145e-02
2.248407898771825785e+03 1.000000000000000056e-01
2.360566942503658538e+03 1.778279410038922925e-01
2.524062330313478924e+03 3.162277660168379412e-01
2.714161833981155269e+03 5.623413251903490728e-01
2.905866390076743755e+03 1.000000000000000000e+00
3.102759448757418340e+03 1.778279410038922759e+00
3.308582524453517181e+03 3.162277660168379523e+00
3.526154407602429728e+03 5.623413251903491172e+00
3.758773006865412299e+03 1.000000000000000000e+01
4.011095418168364631e+03 1.778279410038922848e+01
4.290513435369504805e+03 3.162277660168379256e+01
4.603525410337311769e+03 5.623413251903490817e+01
4.958509906862221214e+03 1.000000000000000000e+02
5.359877775740813377e+03 1.778279410038922776e+02
5.833650255284180275e+03 3.162277660168379612e+02
