# Temperature (K), Pressure (bars)
9.792641622128819563e+02 3.162277660168379394e-04
1.027951728430598223e+03 5.623413251903490971e-04
1.076639296266104566e+03 1.000000000000000021e-03
1.126370113254738499e+03 1.778279410038922752e-03
1.176944353055092506e+03 3.162277660168379394e-03
1.229052570190592860e+03 5.623413251903490971e-03
1.283277568681278581e+03 1.000000000000000021e-02
1.341099272710068590e+03 1.778279410038922925e-02
1.407797462757392395e+03 3.162277660168379134e-02
1.489806742976388477e+03 5.623413251903491145e-02
1.616959767221717811e+03 1.000000000000000056e-01
1.825426918974059163e+03 1.778279410038922925e-01
2.086038058031571381e+03 3.162277660168379412e-01
2.343558592735063939e+03 5.623413251903490728e-01
2.583606362441963483e+03 1.000000000000000000e+00
2.812044641562627476e+03 1.778279410038922759e+00
3.035278053355779775e+03 3.162277660168379523e+00
3.259795841371037568e+03 5.623413251903491172e+00
3.491813101924979492e+03 1.000000000000000000e+01
3.737431174999317136e+03 1.778279410038922848e+01
4.004652640334640182e+03 3.162277660168379256e+01
4.298461234249626614e+03 5.623413251903490817e+01
4.625821747587250684e+03 1.000000000000000000e+02
4.990237829183616668e+03 1.778279410038922776e+02
5.411814173662566645e+03 3.162277660168379612e+02
