# Temperature (K), Pressure (bars)
7.878277657934288527e+02 3.162277660168379394e-04
8.312745649863038579e+02 5.623413251903490971e-04
8.747213653093157291e+02 1.000000000000000021e-03
9.180564485505991570e+02 1.778279410038922752e-03
9.613825000897154496e+02 3.162277660168379394e-03
1.005479048686156261e+03 5.623413251903490971e-03
1.051064000936788489e+03 1.000000000000000021e-02
1.100098584740219849e+03 1.778279410038922925e-02
1.156288098174675042e+03 3.162277660168379134e-02
1.224299969302066984e+03 5.623413251903491145e-02
1.311424081015215961e+03 1.000000000000000056e-01
1.434065458826418535e+03 1.778279410038922925e-01
1.608884582136834752e+03 3.162277660168379412e-01
1.840149428516739590e+03 5.623413251903490728e-01
2.110829883217664701e+03 1.000000000000000000e+00
2.386624126176741811e+03 1.778279410038922759e+00
2.650632168209414885e+03 3.162277660168379523e+00
2.905438017043058153e+03 5.623413251903491172e+00
3.156104557473279783e+03 1.000000000000000000e+01
3.410128487951515126e+03 1.778279410038922848e+01
3.676913464115895749e+03 3.162277660168379256e+01
3.962250367076125258e+03 5.623413251903490817e+01
4.273006902295526743e+03 1.000000000000000000e+02
4.612488582958318148e+03 1.778279410038922776e+02
4.997779124549393600e+03 3.162277660168379612e+02
