# Temperature (K), Pressure (bars)
2.242308710756413802e+03 3.162277660168379191e-06
2.255899587729899395e+03 5.623413251903491208e-06
2.270253707743318046e+03 1.000000000000000082e-05
2.290117762216348183e+03 1.778279410038922901e-05
2.316076020799975595e+03 3.162277660168379530e-05
2.344872278872851894e+03 5.623413251903490700e-05
2.377378524008598561e+03 1.000000000000000048e-04
2.416681086316901656e+03 1.778279410038922698e-04
2.464364702849696187e+03 3.162277660168379394e-04
2.519858855314051198e+03 5.623413251903490971e-04
2.581526860186883368e+03 1.000000000000000021e-03
2.647615913796701534e+03 1.778279410038922752e-03
2.714913074117536326e+03 3.162277660168379394e-03
2.779486853228328073e+03 5.623413251903490971e-03
2.838047472164586907e+03 1.000000000000000021e-02
2.887218615416568355e+03 1.778279410038922925e-02
2.935417061499455940e+03 3.162277660168379134e-02
2.985502513120431104e+03 5.623413251903491145e-02
3.059383338813368937e+03 1.000000000000000056e-01
3.194667780079818385e+03 1.778279410038922925e-01
3.365391198377365981e+03 3.162277660168379412e-01
3.547922666013118942e+03 5.623413251903490728e-01
3.755544862422841106e+03 1.000000000000000000e+00
3.993130437068982246e+03 1.778279410038922759e+00
4.265360433650906998e+03 3.162277660168379523e+00
4.580564385253837827e+03 5.623413251903491172e+00
4.943623603945061404e+03 1.000000000000000000e+01
5.392071874470133480e+03 1.778279410038922848e+01
5.972825074160985423e+03 3.162277660168379256e+01
6.772986654851113599e+03 5.623413251903490817e+01
7.933964685865240426e+03 1.000000000000000000e+02
9.568989138526922034e+03 1.778279410038922776e+02
1.159571569196015116e+04 3.162277660168379612e+02
