# Temperature (K), Pressure (bars)
2.470634499210832928e+03 9.999999999999999547e-07
2.484927706438465975e+03 1.778279410038922901e-06
2.499220913666099477e+03 3.162277660168379191e-06
2.520231338591414897e+03 5.623413251903491208e-06
2.548860632600921690e+03 1.000000000000000082e-05
2.580587771769305618e+03 1.778279410038922901e-05
2.613797514892976778e+03 3.162277660168379530e-05
2.648990233748408627e+03 5.623413251903490700e-05
2.685241061516760055e+03 1.000000000000000048e-04
2.722245391320451290e+03 1.778279410038922698e-04
2.759777033348736950e+03 3.162277660168379394e-04
2.796563149055990834e+03 5.623413251903490971e-04
2.829397081498635998e+03 1.000000000000000021e-03
2.853486222070287113e+03 1.778279410038922752e-03
2.868124146236288198e+03 3.162277660168379394e-03
2.882861447378139928e+03 5.623413251903490971e-03
2.910640793416748238e+03 1.000000000000000021e-02
2.959734936152072351e+03 1.778279410038922925e-02
3.028937458765282827e+03 3.162277660168379134e-02
3.122134236047068953e+03 5.623413251903491145e-02
3.252709763695288530e+03 1.000000000000000056e-01
3.415963178498624075e+03 1.778279410038922925e-01
3.605069085247489966e+03 3.162277660168379412e-01
3.828132508215042435e+03 5.623413251903490728e-01
4.099393781608856443e+03 1.000000000000000000e+00
4.395343490675371868e+03 1.778279410038922759e+00
4.763966026315787531e+03 3.162277660168379523e+00
5.254043253757911771e+03 5.623413251903491172e+00
5.968547423421186068e+03 1.000000000000000000e+01
7.082627986240552673e+03 1.778279410038922848e+01
8.665560421681313528e+03 3.162277660168379256e+01
1.058708804224785308e+04 5.623413251903490817e+01
1.288335899126059667e+04 1.000000000000000000e+02
1.568678745622759016e+04 1.778279410038922776e+02
1.903034617943923877e+04 3.162277660168379612e+02
