# Temperature (K), Pressure (bars)
1.626733875480887264e+03 3.162277660168379530e-05
1.638907334538155055e+03 5.623413251903490700e-05
1.651080795605951835e+03 1.000000000000000048e-04
1.667474757607169749e+03 1.778279410038922698e-04
1.690004459929881477e+03 3.162277660168379394e-04
1.719576711701543445e+03 5.623413251903490971e-04
1.753429714095464760e+03 1.000000000000000021e-03
1.789835526293473094e+03 1.778279410038922752e-03
1.830209923132676067e+03 3.162277660168379394e-03
1.873992308790973084e+03 5.623413251903490971e-03
1.920475059731199963e+03 1.000000000000000021e-02
1.969334123275059710e+03 1.778279410038922925e-02
2.021448808465066577e+03 3.162277660168379134e-02
2.078185464274986771e+03 5.623413251903491145e-02
2.144670620160565704e+03 1.000000000000000056e-01
2.222496653674698337e+03 1.778279410038922925e-01
2.332288586976038459e+03 3.162277660168379412e-01
2.504272841904767120e+03 5.623413251903490728e-01
2.712339960023388812e+03 1.000000000000000000e+00
2.922167976614846339e+03 1.778279410038922759e+00
3.134747165357215636e+03 3.162277660168379523e+00
3.355159648916264814e+03 5.623413251903491172e+00
3.587116644948242083e+03 1.000000000000000000e+01
3.834970954229545441e+03 1.778279410038922848e+01
4.105598014575360139e+03 3.162277660168379256e+01
4.405159937501151944e+03 5.623413251903490817e+01
4.741131610325315705e+03 1.000000000000000000e+02
5.116993691086273429e+03 1.778279410038922776e+02
5.555399916941665651e+03 3.162277660168379612e+02
