# Temperature (K), Pressure (bars)
1.113380537325562500e+03 9.999999999999999547e-07
1.153197437286257582e+03 1.778279410038922901e-06
1.193014337246952437e+03 3.162277660168379191e-06
1.236538634065947463e+03 5.623413251903491208e-06
1.284094755617287547e+03 1.000000000000000082e-05
1.335065345147619610e+03 1.778279410038922901e-05
1.389809501500587430e+03 3.162277660168379530e-05
1.449795949560448662e+03 5.623413251903490700e-05
1.516653274745740418e+03 1.000000000000000048e-04
1.593196051041504234e+03 1.778279410038922698e-04
1.684239532549498335e+03 3.162277660168379394e-04
1.787543885479117080e+03 5.623413251903490971e-04
1.904054289615228981e+03 1.000000000000000021e-03
2.045091163220719636e+03 1.778279410038922752e-03
2.204640121466683468e+03 3.162277660168379394e-03
2.366103429535281521e+03 5.623413251903490971e-03
2.525634822938534398e+03 1.000000000000000021e-02
2.685966770201815052e+03 1.778279410038922925e-02
2.850091633019996607e+03 3.162277660168379134e-02
3.021103194637506931e+03 5.623413251903491145e-02
3.202026892754372511e+03 1.000000000000000056e-01
3.395475398876369127e+03 1.778279410038922925e-01
3.604676010213698646e+03 3.162277660168379412e-01
3.835704168907772782e+03 5.623413251903490728e-01
4.099020956601132639e+03 1.000000000000000000e+00
4.397403106610262512e+03 1.778279410038922759e+00
4.765452337388915112e+03 3.162277660168379523e+00
5.253261170827254318e+03 5.623413251903491172e+00
5.955145205790311593e+03 1.000000000000000000e+01
7.006262749857735798e+03 1.778279410038922848e+01
8.539410155382436642e+03 3.162277660168379256e+01
1.000000000000000000e+04 5.623413251903490817e+01
1.000000000000000000e+04 1.000000000000000000e+02
1.000000000000000000e+04 1.778279410038922776e+02
1.000000000000000000e+04 3.162277660168379612e+02
