# Temperature (K), Pressure (bars)
2.202921334164213022e+03 9.999999999999999547e-07
2.225665188485922044e+03 1.778279410038922901e-06
2.248409042807631067e+03 3.162277660168379191e-06
2.271737294201413533e+03 5.623413251903491208e-06
2.296430600719273116e+03 1.000000000000000082e-05
2.322590576765101105e+03 1.778279410038922901e-05
2.349866640969997206e+03 3.162277660168379530e-05
2.377320765674863651e+03 5.623413251903490700e-05
2.403463704002041595e+03 1.000000000000000048e-04
2.426994226327987235e+03 1.778279410038922698e-04
2.447911249831628083e+03 3.162277660168379394e-04
2.467890358770969215e+03 5.623413251903490971e-04
2.489886877394682415e+03 1.000000000000000021e-03
2.516793384633623191e+03 1.778279410038922752e-03
2.551280979256116098e+03 3.162277660168379394e-03
2.594565185750486307e+03 5.623413251903490971e-03
2.649559844896560207e+03 1.000000000000000021e-02
2.714322641686253519e+03 1.778279410038922925e-02
2.797031601060778485e+03 3.162277660168379134e-02
2.915037954474827529e+03 5.623413251903491145e-02
3.056489070429001458e+03 1.000000000000000056e-01
3.210563119641669800e+03 1.778279410038922925e-01
3.383998445647715471e+03 3.162277660168379412e-01
3.579713546455960568e+03 5.623413251903490728e-01
3.799726150352837067e+03 1.000000000000000000e+00
4.046943292888740871e+03 1.778279410038922759e+00
4.328118376006136714e+03 3.162277660168379523e+00
4.655740736596362694e+03 5.623413251903491172e+00
5.041732989615908991e+03 1.000000000000000000e+01
5.528796649584299303e+03 1.778279410038922848e+01
6.179195767465648714e+03 3.162277660168379256e+01
7.110920258372499120e+03 5.623413251903490817e+01
8.475889570701283446e+03 1.000000000000000000e+02
1.029506120591340732e+04 1.778279410038922776e+02
1.248935370203209459e+04 3.162277660168379612e+02
