# Temperature (K), Pressure (bars)
1.209972819304340874e+03 3.162277660168379394e-04
1.253496138037623723e+03 5.623413251903490971e-04
1.297019459813015374e+03 1.000000000000000021e-03
1.342929068739524610e+03 1.778279410038922752e-03
1.390992931409977700e+03 3.162277660168379394e-03
1.443912801404896982e+03 5.623413251903490971e-03
1.498128398505653649e+03 1.000000000000000021e-02
1.560107810096060575e+03 1.778279410038922925e-02
1.643555014642915921e+03 3.162277660168379134e-02
1.727636450273080300e+03 5.623413251903491145e-02
1.800042039625795724e+03 1.000000000000000056e-01
1.876057386747421106e+03 1.778279410038922925e-01
1.968038306296660949e+03 3.162277660168379412e-01
2.082106251157943461e+03 5.623413251903490728e-01
2.226402029956909701e+03 1.000000000000000000e+00
2.429803834549392832e+03 1.778279410038922759e+00
2.686780771303727306e+03 3.162277660168379523e+00
2.946428320792029808e+03 5.623413251903491172e+00
3.195538999471630177e+03 1.000000000000000000e+01
3.449254988637555925e+03 1.778279410038922848e+01
3.715917325415324740e+03 3.162277660168379256e+01
4.001889765871961572e+03 5.623413251903490817e+01
4.314134082188748835e+03 1.000000000000000000e+02
4.655785831046609928e+03 1.778279410038922776e+02
5.044586948882625620e+03 3.162277660168379612e+02
