# Temperature (K), Pressure (bars)
1.082960479430247005e+03 5.623413251903490971e-04
1.119481266307234364e+03 1.000000000000000021e-03
1.156002052093476550e+03 1.778279410038922752e-03
1.188237218115600854e+03 3.162277660168379394e-03
1.218565217902542145e+03 5.623413251903490971e-03
1.253200327905420863e+03 1.000000000000000021e-02
1.296950836772939056e+03 1.778279410038922925e-02
1.351164181596815979e+03 3.162277660168379134e-02
1.409636266740906876e+03 5.623413251903491145e-02
1.478324734176244874e+03 1.000000000000000056e-01
1.571188205574711901e+03 1.778279410038922925e-01
1.664751470008851356e+03 3.162277660168379412e-01
1.743758233110401306e+03 5.623413251903490728e-01
1.834914412331188714e+03 1.000000000000000000e+00
1.964895402806572747e+03 1.778279410038922759e+00
2.173582537803672494e+03 3.162277660168379523e+00
2.463053300812337056e+03 5.623413251903491172e+00
2.763692922268618531e+03 1.000000000000000000e+01
3.046603019304885493e+03 1.778279410038922848e+01
3.329923941087289222e+03 3.162277660168379256e+01
3.621293941437330886e+03 5.623413251903490817e+01
3.928672133097571077e+03 1.000000000000000000e+02
4.256717326874824721e+03 1.778279410038922776e+02
4.620424712795133928e+03 3.162277660168379612e+02
