# Temperature (K), Pressure (bars)
9.864621122937329574e+02 3.162277660168379530e-05
1.019742004355353515e+03 5.623413251903490700e-05
1.053021891961215260e+03 1.000000000000000048e-04
1.082971442175153697e+03 1.778279410038922698e-04
1.111646718188321984e+03 3.162277660168379394e-04
1.151474574053743709e+03 5.623413251903490971e-04
1.222826949606394692e+03 1.000000000000000021e-03
1.303554793490572592e+03 1.778279410038922752e-03
1.392431437572260620e+03 3.162277660168379394e-03
1.515155371469572174e+03 5.623413251903490971e-03
1.621348362370901441e+03 1.000000000000000021e-02
1.681820314943311359e+03 1.778279410038922925e-02
1.730985974472434691e+03 3.162277660168379134e-02
1.788301551367370621e+03 5.623413251903491145e-02
1.863365301366398853e+03 1.000000000000000056e-01
1.951548044469441265e+03 1.778279410038922925e-01
2.072305122467464571e+03 3.162277660168379412e-01
2.267675387908846460e+03 5.623413251903490728e-01
2.508168189118237933e+03 1.000000000000000000e+00
2.744983771897553197e+03 1.778279410038922759e+00
2.974478816538730371e+03 3.162277660168379523e+00
3.203358290742808094e+03 5.623413251903491172e+00
3.437717527806045837e+03 1.000000000000000000e+01
3.683991467581314282e+03 1.778279410038922848e+01
3.950204808686530669e+03 3.162277660168379256e+01
4.241780601504222432e+03 5.623413251903490817e+01
4.565615930117515745e+03 1.000000000000000000e+02
4.924811163618132014e+03 1.778279410038922776e+02
5.339695151800956410e+03 3.162277660168379612e+02
