# Temperature (K), Pressure (bars)
1.896632574784322514e+03 9.999999999999999547e-07
1.904257721587113338e+03 1.778279410038922901e-06
1.911882868390122667e+03 3.162277660168379191e-06
1.923737867134604585e+03 5.623413251903491208e-06
1.940715745203830465e+03 1.000000000000000082e-05
1.962607335180481186e+03 1.778279410038922901e-05
1.990353460921302030e+03 3.162277660168379530e-05
2.024535863219863586e+03 5.623413251903490700e-05
2.063069870051143880e+03 1.000000000000000048e-04
2.104051561533406129e+03 1.778279410038922698e-04
2.147642402172143193e+03 3.162277660168379394e-04
2.194398643689757591e+03 5.623413251903490971e-04
2.245164010548215629e+03 1.000000000000000021e-03
2.301846857413298039e+03 1.778279410038922752e-03
2.366199387413726072e+03 3.162277660168379394e-03
2.446522333116520713e+03 5.623413251903490971e-03
2.549839736737567364e+03 1.000000000000000021e-02
2.667502940427979865e+03 1.778279410038922925e-02
2.793525874089682929e+03 3.162277660168379134e-02
2.930391179296041173e+03 5.623413251903491145e-02
3.079739264685064882e+03 1.000000000000000056e-01
3.243915165811033603e+03 1.778279410038922925e-01
3.425914193951205561e+03 3.162277660168379412e-01
3.628834796007351542e+03 5.623413251903490728e-01
3.855762001819121451e+03 1.000000000000000000e+00
4.111607549064852719e+03 1.778279410038922759e+00
4.405616767749923383e+03 3.162277660168379523e+00
4.742359226110469535e+03 5.623413251903491172e+00
5.158417240963585755e+03 1.000000000000000000e+01
5.697761245013689404e+03 1.778279410038922848e+01
6.439738097537977410e+03 3.162277660168379256e+01
7.525280719890976798e+03 5.623413251903490817e+01
9.093623721306545121e+03 1.000000000000000000e+02
1.106938230641124392e+04 1.778279410038922776e+02
1.342717926481568429e+04 3.162277660168379612e+02
