# Temperature (K), Pressure (bars)
9.124660866049575816e+02 1.000000000000000021e-03
9.616923099620231596e+02 1.778279410038922752e-03
1.010918534774545606e+03 3.162277660168379394e-03
1.058489759303617802e+03 5.623413251903490971e-03
1.105754796428784857e+03 1.000000000000000021e-02
1.153805201177837489e+03 1.778279410038922925e-02
1.203975015515827408e+03 3.162277660168379134e-02
1.258533295116797717e+03 5.623413251903491145e-02
1.322472352566413065e+03 1.000000000000000056e-01
1.401223028978156435e+03 1.778279410038922925e-01
1.511694281495133509e+03 3.162277660168379412e-01
1.674324755463161182e+03 5.623413251903490728e-01
1.895784843460484808e+03 1.000000000000000000e+00
2.165437268119273995e+03 1.778279410038922759e+00
2.447495839617389265e+03 3.162277660168379523e+00
2.720175926063267980e+03 5.623413251903491172e+00
2.986667342651302988e+03 1.000000000000000000e+01
3.251690966272286005e+03 1.778279410038922848e+01
3.523944274125562515e+03 3.162277660168379256e+01
3.810160731150224365e+03 5.623413251903490817e+01
4.117731698542003869e+03 1.000000000000000000e+02
4.450675958421506039e+03 1.778279410038922776e+02
4.824612096190789998e+03 3.162277660168379612e+02
