# Temperature (K), Pressure (bars)
8.719082736317418494e+02 3.162277660168379394e-04
9.220383001100026377e+02 5.623413251903490971e-04
9.721683280120762447e+02 1.000000000000000021e-03
1.021848486616344871e+03 1.778279410038922752e-03
1.070990870254600168e+03 3.162277660168379394e-03
1.120750842996362962e+03 5.623413251903490971e-03
1.172391628089766073e+03 1.000000000000000021e-02
1.228028575240061855e+03 1.778279410038922925e-02
1.291621694074156949e+03 3.162277660168379134e-02
1.368499560768218089e+03 5.623413251903491145e-02
1.466956206813365270e+03 1.000000000000000056e-01
1.602987064060361945e+03 1.778279410038922925e-01
1.805375290790382678e+03 3.162277660168379412e-01
2.069306419833925247e+03 5.623413251903490728e-01
2.341299804589168161e+03 1.000000000000000000e+00
2.595466199371555831e+03 1.778279410038922759e+00
2.838622737690351642e+03 3.162277660168379523e+00
3.076372294775170303e+03 5.623413251903491172e+00
3.315673393651315109e+03 1.000000000000000000e+01
3.563531994140331335e+03 1.778279410038922848e+01
3.828467583715680121e+03 3.162277660168379256e+01
4.115770435751730474e+03 5.623413251903490817e+01
4.432134613698637622e+03 1.000000000000000000e+02
4.780653655961116783e+03 1.778279410038922776e+02
5.179966784599702805e+03 3.162277660168379612e+02
