# Temperature (K), Pressure (bars)
1.076263232596890703e+03 3.162277660168379394e-04
1.117932104391364646e+03 5.623413251903490971e-04
1.159600978107397623e+03 1.000000000000000021e-03
1.202783084029121710e+03 1.778279410038922752e-03
1.247813019074970498e+03 3.162277660168379394e-03
1.294960160322185175e+03 5.623413251903490971e-03
1.345377240351777345e+03 1.000000000000000021e-02
1.401102838259476357e+03 1.778279410038922925e-02
1.465334853825874234e+03 3.162277660168379134e-02
1.540833705300981819e+03 5.623413251903491145e-02
1.629233474162005677e+03 1.000000000000000056e-01
1.735417862344325158e+03 1.778279410038922925e-01
1.868246356996016402e+03 3.162277660168379412e-01
2.018355422621499429e+03 5.623413251903490728e-01
2.199373690904355499e+03 1.000000000000000000e+00
2.440290318417673006e+03 1.778279410038922759e+00
2.702044806764477471e+03 3.162277660168379523e+00
2.951561721494545964e+03 5.623413251903491172e+00
3.199487328625409191e+03 1.000000000000000000e+01
3.452718412982971586e+03 1.778279410038922848e+01
3.719155012694994184e+03 3.162277660168379256e+01
4.005057338101009009e+03 5.623413251903490817e+01
4.317268370113234596e+03 1.000000000000000000e+02
4.659040651652426277e+03 1.778279410038922776e+02
5.048041844977466098e+03 3.162277660168379612e+02
