# Temperature (K), Pressure (bars)
1.155350865650157630e+03 1.000000000000000048e-04
1.195130749595358111e+03 1.778279410038922698e-04
1.234910636052729387e+03 3.162277660168379394e-04
1.277353124773021818e+03 5.623413251903490971e-04
1.324427807748688565e+03 1.000000000000000021e-03
1.376326492332181942e+03 1.778279410038922752e-03
1.435775307454523954e+03 3.162277660168379394e-03
1.497572140429900628e+03 5.623413251903490971e-03
1.565494222618057393e+03 1.000000000000000021e-02
1.651902849691015035e+03 1.778279410038922925e-02
1.740145741359134036e+03 3.162277660168379134e-02
1.820165268440492810e+03 5.623413251903491145e-02
1.905216784015899748e+03 1.000000000000000056e-01
2.008456089483033566e+03 1.778279410038922925e-01
2.136134180769568047e+03 3.162277660168379412e-01
2.311356045656996230e+03 5.623413251903490728e-01
2.544177624992357323e+03 1.000000000000000000e+00
2.784096528275681067e+03 1.778279410038922759e+00
3.008318818777639990e+03 3.162277660168379523e+00
3.234154132591223970e+03 5.623413251903491172e+00
3.467797575531814800e+03 1.000000000000000000e+01
3.714443492447838253e+03 1.778279410038922848e+01
3.981437829695880737e+03 3.162277660168379256e+01
4.274511338168726979e+03 5.623413251903490817e+01
4.600674613393270192e+03 1.000000000000000000e+02
4.963463924235974446e+03 1.778279410038922776e+02
5.382877786172205560e+03 3.162277660168379612e+02
