# Temperature (K), Pressure (bars)
1.631131957299809073e+03 9.999999999999999547e-07
1.690080359321711967e+03 1.778279410038922901e-06
1.749028761345610974e+03 3.162277660168379191e-06
1.819194244685543254e+03 5.623413251903491208e-06
1.884578920869683770e+03 1.000000000000000082e-05
1.941861406564334175e+03 1.778279410038922901e-05
1.995276168569932452e+03 3.162277660168379530e-05
2.043071028371078228e+03 5.623413251903490700e-05
2.084501930175680172e+03 1.000000000000000048e-04
2.120522371213806764e+03 1.778279410038922698e-04
2.153572456070353837e+03 3.162277660168379394e-04
2.185534035913517073e+03 5.623413251903490971e-04
2.217995537038853399e+03 1.000000000000000021e-03
2.253111709093725040e+03 1.778279410038922752e-03
2.292660418765522991e+03 3.162277660168379394e-03
2.339720347283690899e+03 5.623413251903490971e-03
2.395582240408150938e+03 1.000000000000000021e-02
2.467685886610516718e+03 1.778279410038922925e-02
2.570161028779577009e+03 3.162277660168379134e-02
2.698090770171696022e+03 5.623413251903491145e-02
2.839223997839051663e+03 1.000000000000000056e-01
2.992846185184163005e+03 1.778279410038922925e-01
3.160906663770179421e+03 3.162277660168379412e-01
3.343817831268725968e+03 5.623413251903490728e-01
3.541209104153281714e+03 1.000000000000000000e+00
3.754314199795400782e+03 1.778279410038922759e+00
3.987024079154577521e+03 3.162277660168379523e+00
4.245497609528048997e+03 5.623413251903491172e+00
4.537913161556340128e+03 1.000000000000000000e+01
4.875369465666119140e+03 1.778279410038922848e+01
5.275200068672900670e+03 3.162277660168379256e+01
5.759785535766021894e+03 5.623413251903490817e+01
6.365587962441184573e+03 1.000000000000000000e+02
7.153650854447268102e+03 1.778279410038922776e+02
8.225834064361079072e+03 3.162277660168379612e+02
