# Temperature (K), Pressure (bars)
8.414429250862544905e+02 1.000000000000000048e-04
8.908460371867273579e+02 1.778279410038922698e-04
9.402491504899351185e+02 3.162277660168379394e-04
9.888790547639188162e+02 5.623413251903490971e-04
1.037775702771992428e+03 1.000000000000000021e-03
1.087895174018298349e+03 1.778279410038922752e-03
1.140401627367149558e+03 3.162277660168379394e-03
1.197880424077695125e+03 5.623413251903490971e-03
1.263012049042200033e+03 1.000000000000000021e-02
1.342097273025054847e+03 1.778279410038922925e-02
1.440115226184668700e+03 3.162277660168379134e-02
1.586237734031966738e+03 5.623413251903491145e-02
1.808605511386145736e+03 1.000000000000000056e-01
2.066311317960803990e+03 1.778279410038922925e-01
2.314425306699013618e+03 3.162277660168379412e-01
2.546232081543347249e+03 5.623413251903490728e-01
2.763732063197797288e+03 1.000000000000000000e+00
2.973977347772938629e+03 1.778279410038922759e+00
3.184077425535580460e+03 3.162277660168379523e+00
3.400451198401669899e+03 5.623413251903491172e+00
3.628831874551417968e+03 1.000000000000000000e+01
3.874696054084326533e+03 1.778279410038922848e+01
4.146115660107089752e+03 3.162277660168379256e+01
4.447598020859926692e+03 5.623413251903490817e+01
4.786535135881172209e+03 1.000000000000000000e+02
5.166688674838794213e+03 1.778279410038922776e+02
5.610757402788939544e+03 3.162277660168379612e+02
