# Temperature (K), Pressure (bars)
1.471888057523392490e+03 1.000000000000000082e-05
1.501400164186342636e+03 1.778279410038922901e-05
1.530912274753597103e+03 3.162277660168379530e-05
1.566747963074105883e+03 5.623413251903490700e-05
1.610266050483107392e+03 1.000000000000000048e-04
1.655706740318065613e+03 1.778279410038922698e-04
1.705993214372211696e+03 3.162277660168379394e-04
1.767966128856757678e+03 5.623413251903490971e-04
1.825224258104115052e+03 1.000000000000000021e-03
1.866667828814763880e+03 1.778279410038922752e-03
1.901747709737410560e+03 3.162277660168379394e-03
1.934220493557515965e+03 5.623413251903490971e-03
1.963679697800856275e+03 1.000000000000000021e-02
1.992610799760800546e+03 1.778279410038922925e-02
2.024039469584375638e+03 3.162277660168379134e-02
2.062221184030617678e+03 5.623413251903491145e-02
2.112762204927795665e+03 1.000000000000000056e-01
2.177675404771573540e+03 1.778279410038922925e-01
2.267194741749334298e+03 3.162277660168379412e-01
2.421931201667234745e+03 5.623413251903490728e-01
2.644193379612388526e+03 1.000000000000000000e+00
2.874104387540920925e+03 1.778279410038922759e+00
3.092411743287178069e+03 3.162277660168379523e+00
3.315315491619561271e+03 5.623413251903491172e+00
3.547835588628711321e+03 1.000000000000000000e+01
3.795024952483468041e+03 1.778279410038922848e+01
4.064252692634468076e+03 3.162277660168379256e+01
4.361495219430968064e+03 5.623413251903490817e+01
4.693992832820807962e+03 1.000000000000000000e+02
5.065433127426033934e+03 1.778279410038922776e+02
5.497179194166586058e+03 3.162277660168379612e+02
