# Temperature (K), Pressure (bars)
1.748409900927910030e+03 9.999999999999999547e-07
1.786581898385506520e+03 1.778279410038922901e-06
1.824753895845477700e+03 3.162277660168379191e-06
1.866029710607777588e+03 5.623413251903491208e-06
1.912818125813718098e+03 1.000000000000000082e-05
1.965115504672425232e+03 1.778279410038922901e-05
2.022465849673259982e+03 3.162277660168379530e-05
2.083852563113479846e+03 5.623413251903490700e-05
2.148478533406498173e+03 1.000000000000000048e-04
2.217022625079980571e+03 1.778279410038922698e-04
2.291034363735465377e+03 3.162277660168379394e-04
2.372877974380032811e+03 5.623413251903490971e-04
2.465004561602785998e+03 1.000000000000000021e-03
2.568095504861841619e+03 1.778279410038922752e-03
2.681490987373692406e+03 3.162277660168379394e-03
2.805223975196714491e+03 5.623413251903490971e-03
2.940590618480995545e+03 1.000000000000000021e-02
3.090737900029516823e+03 1.778279410038922925e-02
3.263012445577521248e+03 3.162277660168379134e-02
3.481025660009088824e+03 5.623413251903491145e-02
3.705381957194710139e+03 1.000000000000000056e-01
3.995340718756189290e+03 1.778279410038922925e-01
4.419016838998445564e+03 3.162277660168379412e-01
5.143070229145230769e+03 5.623413251903490728e-01
6.273771428029155686e+03 1.000000000000000000e+00
7.777496133356415157e+03 1.778279410038922759e+00
9.367903754991841197e+03 3.162277660168379523e+00
1.100985747591162908e+04 5.623413251903491172e+00
1.297273183081460957e+04 1.000000000000000000e+01
1.546056624008905965e+04 1.778279410038922848e+01
1.860090526146745469e+04 3.162277660168379256e+01
2.253773503527112553e+04 5.623413251903490817e+01
2.742091298313922380e+04 1.000000000000000000e+02
3.338144290057718172e+04 1.778279410038922776e+02
4.049193861485704110e+04 3.162277660168379612e+02
