# Temperature (K), Pressure (bars)
2.351156646650875700e+03 9.999999999999999547e-07
2.368640470586989068e+03 1.778279410038922901e-06
2.386124294523564913e+03 3.162277660168379191e-06
2.409330519605401605e+03 5.623413251903491208e-06
2.435950822347779194e+03 1.000000000000000082e-05
2.464968603475425880e+03 1.778279410038922901e-05
2.495377005799326980e+03 3.162277660168379530e-05
2.525605697831496400e+03 5.623413251903490700e-05
2.555368258600378795e+03 1.000000000000000048e-04
2.583566300499640420e+03 1.778279410038922698e-04
2.607983424380651741e+03 3.162277660168379394e-04
2.625627697719377011e+03 5.623413251903490971e-04
2.636399409864080098e+03 1.000000000000000021e-03
2.646131210117139744e+03 1.778279410038922752e-03
2.662468388778003828e+03 3.162277660168379394e-03
2.690162039098953301e+03 5.623413251903490971e-03
2.729753809537868619e+03 1.000000000000000021e-02
2.783103291024552163e+03 1.778279410038922925e-02
2.849712470048955765e+03 3.162277660168379134e-02
2.941096812816285365e+03 5.623413251903491145e-02
3.072558865890689049e+03 1.000000000000000056e-01
3.227368716841388959e+03 1.778279410038922925e-01
3.394910943624810443e+03 3.162277660168379412e-01
3.584248759819342922e+03 5.623413251903490728e-01
3.799892876657416309e+03 1.000000000000000000e+00
4.045890824948038698e+03 1.778279410038922759e+00
4.328151142371295464e+03 3.162277660168379523e+00
4.658083645520982827e+03 5.623413251903491172e+00
5.045058970507415324e+03 1.000000000000000000e+01
5.534017966659978811e+03 1.778279410038922848e+01
6.188138141788405846e+03 3.162277660168379256e+01
7.126899219040851676e+03 5.623413251903490817e+01
8.501896810445781739e+03 1.000000000000000000e+02
1.032926822381977581e+04 1.778279410038922776e+02
1.253134222879302069e+04 3.162277660168379612e+02
