# Temperature (K), Pressure (bars)
1.012385347030575531e+03 9.999999999999999547e-07
1.028638707071259205e+03 1.778279410038922901e-06
1.044892067115403279e+03 3.162277660168379191e-06
1.066004602569437793e+03 5.623413251903491208e-06
1.093521702731457253e+03 1.000000000000000082e-05
1.126451346408729023e+03 1.778279410038922901e-05
1.163320006456362307e+03 3.162277660168379530e-05
1.204223009895029236e+03 5.623413251903490700e-05
1.249444754460684635e+03 1.000000000000000048e-04
1.298841349351316694e+03 1.778279410038922698e-04
1.353633131475147366e+03 3.162277660168379394e-04
1.416213688885489773e+03 5.623413251903490971e-04
1.487791213275978407e+03 1.000000000000000021e-03
1.570400573512628853e+03 1.778279410038922752e-03
1.667747616758667391e+03 3.162277660168379394e-03
1.778978401490878923e+03 5.623413251903490971e-03
1.898691394379595067e+03 1.000000000000000021e-02
2.043438663734348211e+03 1.778279410038922925e-02
2.224109422531000746e+03 3.162277660168379134e-02
2.409558642570531447e+03 5.623413251903491145e-02
2.583817390732823696e+03 1.000000000000000056e-01
2.756047082569049053e+03 1.778279410038922925e-01
2.930416217715759558e+03 3.162277660168379412e-01
3.109651906169419362e+03 5.623413251903490728e-01
3.295817157378309275e+03 1.000000000000000000e+00
3.491614335804710208e+03 1.778279410038922759e+00
3.701010881989815971e+03 3.162277660168379523e+00
3.928791424187997109e+03 5.623413251903491172e+00
4.180344993288454134e+03 1.000000000000000000e+01
4.462140576879506625e+03 1.778279410038922848e+01
4.782775796140593229e+03 3.162277660168379256e+01
5.157418383811044805e+03 5.623413251903490817e+01
5.598056275739188095e+03 1.000000000000000000e+02
6.126328366933471443e+03 1.778279410038922776e+02
6.774517916991884704e+03 3.162277660168379612e+02
