# Temperature (K), Pressure (bars)
7.583297173624969219e+02 3.162277660168379530e-05
8.044815270258297915e+02 5.623413251903490700e-05
8.506333423057541268e+02 1.000000000000000048e-04
8.962802044319024617e+02 1.778279410038922698e-04
9.420548579697579044e+02 3.162277660168379394e-04
9.896792868190398167e+02 5.623413251903490971e-04
1.041257827667837091e+03 1.000000000000000021e-03
1.099848321377526418e+03 1.778279410038922752e-03
1.168004694148598901e+03 3.162277660168379394e-03
1.250779205030414460e+03 5.623413251903490971e-03
1.353323370997665506e+03 1.000000000000000021e-02
1.506039886807240009e+03 1.778279410038922925e-02
1.733229430263182849e+03 3.162277660168379134e-02
1.991114791413795047e+03 5.623413251903491145e-02
2.236381842774784218e+03 1.000000000000000056e-01
2.460017837415261056e+03 1.778279410038922925e-01
2.662515720505459285e+03 3.162277660168379412e-01
2.853165444616269724e+03 5.623413251903490728e-01
3.040513588681819783e+03 1.000000000000000000e+00
3.231364917384817090e+03 1.778279410038922759e+00
3.431129264153386885e+03 3.162277660168379523e+00
3.644460642596261550e+03 5.623413251903491172e+00
3.875882609557487740e+03 1.000000000000000000e+01
4.130317956730435981e+03 1.778279410038922848e+01
4.413599475779859858e+03 3.162277660168379256e+01
4.733448247100559456e+03 5.623413251903490817e+01
5.104687907176115914e+03 1.000000000000000000e+02
5.534993857559374192e+03 1.778279410038922776e+02
6.041700853310194361e+03 3.162277660168379612e+02
