# Temperature (K), Pressure (bars)
9.116060178961399743e+02 5.623413251903490971e-04
9.525267573901696778e+02 1.000000000000000021e-03
9.934474977920050378e+02 1.778279410038922752e-03
1.035299579746901372e+03 3.162277660168379394e-03
1.078934095207633845e+03 5.623413251903490971e-03
1.124272005490763604e+03 1.000000000000000021e-02
1.171145586801533682e+03 1.778279410038922925e-02
1.221152543774954211e+03 3.162277660168379134e-02
1.275008868678217596e+03 5.623413251903491145e-02
1.339106167131591747e+03 1.000000000000000056e-01
1.442685876580256263e+03 1.778279410038922925e-01
1.600104026358588271e+03 3.162277660168379412e-01
1.802342746239047756e+03 5.623413251903490728e-01
2.050660720158580716e+03 1.000000000000000000e+00
2.324247781269057214e+03 1.778279410038922759e+00
2.593876986396558095e+03 3.162277660168379523e+00
2.854403193599233418e+03 5.623413251903491172e+00
3.109651134811326756e+03 1.000000000000000000e+01
3.366575428104065395e+03 1.778279410038922848e+01
3.634538626588623174e+03 3.162277660168379256e+01
3.919796025041797748e+03 5.623413251903490817e+01
4.229325970953227625e+03 1.000000000000000000e+02
4.566315211030064347e+03 1.778279410038922776e+02
4.947981166028253938e+03 3.162277660168379612e+02
