# Temperature (K), Pressure (bars)
2.175784189484757917e+03 9.999999999999999547e-07
2.187147122997702809e+03 1.778279410038922901e-06
2.198510056510648155e+03 3.162277660168379191e-06
2.219033907458327121e+03 5.623413251903491208e-06
2.242347281786833719e+03 1.000000000000000082e-05
2.264289494093689427e+03 1.778279410038922901e-05
2.285268068783762828e+03 3.162277660168379530e-05
2.305745096995260155e+03 5.623413251903490700e-05
2.326924619054841514e+03 1.000000000000000048e-04
2.349172744238391260e+03 1.778279410038922698e-04
2.372199942596054825e+03 3.162277660168379394e-04
2.395307054652816532e+03 5.623413251903490971e-04
2.418607747958300024e+03 1.000000000000000021e-03
2.443562018020148116e+03 1.778279410038922752e-03
2.471968237487761144e+03 3.162277660168379394e-03
2.505085726852620610e+03 5.623413251903490971e-03
2.545556592253469717e+03 1.000000000000000021e-02
2.595669558800560480e+03 1.778279410038922925e-02
2.674759049116293681e+03 3.162277660168379134e-02
2.797482062182665686e+03 5.623413251903491145e-02
2.939217450184316931e+03 1.000000000000000056e-01
3.087264034340762464e+03 1.778279410038922925e-01
3.250872275880539746e+03 3.162277660168379412e-01
3.433193763743156524e+03 5.623413251903490728e-01
3.635773750964337978e+03 1.000000000000000000e+00
3.859642374213138737e+03 1.778279410038922759e+00
4.107943415369069953e+03 3.162277660168379523e+00
4.387445252953453746e+03 5.623413251903491172e+00
4.708765188814414614e+03 1.000000000000000000e+01
5.085190401882030528e+03 1.778279410038922848e+01
5.544276276156640051e+03 3.162277660168379256e+01
6.125676590951813523e+03 5.623413251903490817e+01
6.899130976960306725e+03 1.000000000000000000e+02
7.978458481922219107e+03 1.778279410038922776e+02
9.498018711075765168e+03 3.162277660168379612e+02
