# Temperature (K), Pressure (bars)
9.234645406836662005e+02 9.999999999999999547e-07
9.670461531426091142e+02 1.778279410038922901e-06
1.010627765612073745e+03 3.162277660168379191e-06
1.054975688013695390e+03 5.623413251903491208e-06
1.101308917622603076e+03 1.000000000000000082e-05
1.150017299757306546e+03 1.778279410038922901e-05
1.201530135211592096e+03 3.162277660168379530e-05
1.256187334200157011e+03 5.623413251903490700e-05
1.314629445611800293e+03 1.000000000000000048e-04
1.379150006329986354e+03 1.778279410038922698e-04
1.452144085408583123e+03 3.162277660168379394e-04
1.538694908008757920e+03 5.623413251903490971e-04
1.641117779202349539e+03 1.000000000000000021e-03
1.774908318697554478e+03 1.778279410038922752e-03
1.958516458130282444e+03 3.162277660168379394e-03
2.163743026167619519e+03 5.623413251903490971e-03
2.357674946114359045e+03 1.000000000000000021e-02
2.539667375844715934e+03 1.778279410038922925e-02
2.715405268929198883e+03 3.162277660168379134e-02
2.889356427977229941e+03 5.623413251903491145e-02
3.064905685641856508e+03 1.000000000000000056e-01
3.244824786468565435e+03 1.778279410038922925e-01
3.432403337657884549e+03 3.162277660168379412e-01
3.632369080048028536e+03 5.623413251903490728e-01
3.850877069125877824e+03 1.000000000000000000e+00
4.095348729069700312e+03 1.778279410038922759e+00
4.375622105358857880e+03 3.162277660168379523e+00
4.702894217905780351e+03 5.623413251903491172e+00
5.103018979656255397e+03 1.000000000000000000e+01
5.614579952632135246e+03 1.778279410038922848e+01
6.306768814976833710e+03 3.162277660168379256e+01
7.290770301187689256e+03 5.623413251903490817e+01
8.727646169636655031e+03 1.000000000000000000e+02
1.060950020787677568e+04 1.778279410038922776e+02
1.286622204414195949e+04 3.162277660168379612e+02
