# Temperature (K), Pressure (bars)
1.016178222504865857e+03 5.623413251903490971e-04
1.063312656346454560e+03 1.000000000000000021e-03
1.110447092183258974e+03 1.778279410038922752e-03
1.156316276466444606e+03 3.162277660168379394e-03
1.202919986161612997e+03 5.623413251903490971e-03
1.251484636385152726e+03 1.000000000000000021e-02
1.301980575992808099e+03 1.778279410038922925e-02
1.355674964832944625e+03 3.162277660168379134e-02
1.415643297772983260e+03 5.623413251903491145e-02
1.490299477369908800e+03 1.000000000000000056e-01
1.587029082017193332e+03 1.778279410038922925e-01
1.711529645036501506e+03 3.162277660168379412e-01
1.868031461698984685e+03 5.623413251903490728e-01
2.054793912041946442e+03 1.000000000000000000e+00
2.286292979694947007e+03 1.778279410038922759e+00
2.557609027388380127e+03 3.162277660168379523e+00
2.827848607410479417e+03 5.623413251903491172e+00
3.085848431364331645e+03 1.000000000000000000e+01
3.344796056167669121e+03 1.778279410038922848e+01
3.613672894527013796e+03 3.162277660168379256e+01
3.899161731164968842e+03 5.623413251903490817e+01
4.208358071526042295e+03 1.000000000000000000e+02
4.544913697243121533e+03 1.778279410038922776e+02
4.925234273283083894e+03 3.162277660168379612e+02
