# Temperature (K), Pressure (bars)
7.597644479213560089e+02 3.162277660168379394e-04
8.025050641958406459e+02 5.623413251903490971e-04
8.452456816570054343e+02 1.000000000000000021e-03
8.874688471927291857e+02 1.778279410038922752e-03
9.299537008462648373e+02 3.162277660168379394e-03
9.731869569746835396e+02 5.623413251903490971e-03
1.017784277807979038e+03 1.000000000000000021e-02
1.065442371851745065e+03 1.778279410038922925e-02
1.120044333462647046e+03 3.162277660168379134e-02
1.185926828559611522e+03 5.623413251903491145e-02
1.270540093900184274e+03 1.000000000000000056e-01
1.379925155375840177e+03 1.778279410038922925e-01
1.539066416469107480e+03 3.162277660168379412e-01
1.770256080873364681e+03 5.623413251903490728e-01
2.040056588447834429e+03 1.000000000000000000e+00
2.314534155635746629e+03 1.778279410038922759e+00
2.584933743869403770e+03 3.162277660168379523e+00
2.846027691697274349e+03 5.623413251903491172e+00
3.101493463628063182e+03 1.000000000000000000e+01
3.358463009239546864e+03 1.778279410038922848e+01
3.626446386162191629e+03 3.162277660168379256e+01
3.911555304626555881e+03 5.623413251903490817e+01
4.220642219639448740e+03 1.000000000000000000e+02
4.557114526354940608e+03 1.778279410038922776e+02
4.937845746556869926e+03 3.162277660168379612e+02
