# Temperature (K), Pressure (bars)
2.469025061644269044e+03 9.999999999999999547e-07
2.486955206092431126e+03 1.778279410038922901e-06
2.504885350540852869e+03 3.162277660168379191e-06
2.527353985864100650e+03 5.623413251903491208e-06
2.554883271516289824e+03 1.000000000000000082e-05
2.585098930580978958e+03 1.778279410038922901e-05
2.616070973368077375e+03 3.162277660168379530e-05
2.647132505886232138e+03 5.623413251903490700e-05
2.678387235564609909e+03 1.000000000000000048e-04
2.709214859157601040e+03 1.778279410038922698e-04
2.738497061769232459e+03 3.162277660168379394e-04
2.764196839174260731e+03 5.623413251903490971e-04
2.782395902649404889e+03 1.000000000000000021e-03
2.791299264468654656e+03 1.778279410038922752e-03
2.797493807701161586e+03 3.162277660168379394e-03
2.814306562057891824e+03 5.623413251903490971e-03
2.849679374981220462e+03 1.000000000000000021e-02
2.906072284978048174e+03 1.778279410038922925e-02
2.980452685079939783e+03 3.162277660168379134e-02
3.080576351411817086e+03 5.623413251903491145e-02
3.220488119127176105e+03 1.000000000000000056e-01
3.386711661270307559e+03 1.778279410038922925e-01
3.571617995990633062e+03 3.162277660168379412e-01
3.786914400008367011e+03 5.623413251903490728e-01
4.042445455794991176e+03 1.000000000000000000e+00
4.352002549304006607e+03 1.778279410038922759e+00
4.703925434205116289e+03 3.162277660168379523e+00
5.161753665472021567e+03 5.623413251903491172e+00
5.807998822931141149e+03 1.000000000000000000e+01
6.797170858400896577e+03 1.778279410038922848e+01
8.262231686355991769e+03 3.162277660168379256e+01
1.010478196352869418e+04 5.623413251903490817e+01
1.229606810615465110e+04 1.000000000000000000e+02
1.497050451010389224e+04 1.778279410038922776e+02
1.816185792572050195e+04 3.162277660168379612e+02
