# Temperature (K), Pressure (bars)
9.495043906528284197e+02 3.162277660168379394e-04
9.992264216576310218e+02 5.623413251903490971e-04
1.048948453059573467e+03 1.000000000000000021e-03
1.097051384307429771e+03 1.778279410038922752e-03
1.142041637049880819e+03 3.162277660168379394e-03
1.184442831530592002e+03 5.623413251903490971e-03
1.225543889701494436e+03 1.000000000000000021e-02
1.268477763062492841e+03 1.778279410038922925e-02
1.318744871069774035e+03 3.162277660168379134e-02
1.376397927274201265e+03 5.623413251903491145e-02
1.437962324275811170e+03 1.000000000000000056e-01
1.509688913740236103e+03 1.778279410038922925e-01
1.585808712405696269e+03 3.162277660168379412e-01
1.704115425158531934e+03 5.623413251903490728e-01
1.924876233016053447e+03 1.000000000000000000e+00
2.202426922948287483e+03 1.778279410038922759e+00
2.479790805390039623e+03 3.162277660168379523e+00
2.751506029029990714e+03 5.623413251903491172e+00
3.015770717461484764e+03 1.000000000000000000e+01
3.278622360487413061e+03 1.778279410038922848e+01
3.549716226527652452e+03 3.162277660168379256e+01
3.835631382691014551e+03 5.623413251903490817e+01
4.143646547625414314e+03 1.000000000000000000e+02
4.477490168593507406e+03 1.778279410038922776e+02
4.853002215539570898e+03 3.162277660168379612e+02
