# Temperature (K), Pressure (bars)
2.364724394253219543e+03 3.162277660168379191e-06
2.375658877441307141e+03 5.623413251903491208e-06
2.386593382646557529e+03 1.000000000000000082e-05
2.411208508170790083e+03 1.778279410038922901e-05
2.445130945226105723e+03 3.162277660168379530e-05
2.483160488353377332e+03 5.623413251903490700e-05
2.525458164735393439e+03 1.000000000000000048e-04
2.572910963803336017e+03 1.778279410038922698e-04
2.627671891661898826e+03 3.162277660168379394e-04
2.691191360671692564e+03 5.623413251903490971e-04
2.765684874495078475e+03 1.000000000000000021e-03
2.852541720905570401e+03 1.778279410038922752e-03
2.948726240076461181e+03 3.162277660168379394e-03
3.046982727884338146e+03 5.623413251903490971e-03
3.138868426930747319e+03 1.000000000000000021e-02
3.215760569728425253e+03 1.778279410038922925e-02
3.279091953310584813e+03 3.162277660168379134e-02
3.314738647405831216e+03 5.623413251903491145e-02
3.345735911762573323e+03 1.000000000000000056e-01
3.455043836754221047e+03 1.778279410038922925e-01
3.643877240217526378e+03 3.162277660168379412e-01
3.876493932493101966e+03 5.623413251903490728e-01
4.167213624377463930e+03 1.000000000000000000e+00
4.486664448847307540e+03 1.778279410038922759e+00
4.898764252948545618e+03 3.162277660168379523e+00
5.478836786776993904e+03 5.623413251903491172e+00
6.381598561810998035e+03 1.000000000000000000e+01
7.754269269677686680e+03 1.778279410038922848e+01
9.511452456147066187e+03 3.162277660168379256e+01
1.000000000000000000e+04 5.623413251903490817e+01
1.000000000000000000e+04 1.000000000000000000e+02
1.000000000000000000e+04 1.778279410038922776e+02
1.000000000000000000e+04 3.162277660168379612e+02
