# Temperature (K), Pressure (bars)
9.919585651019615398e+02 3.162277660168379394e-04
1.053750866359958763e+03 5.623413251903490971e-04
1.115543168993319341e+03 1.000000000000000021e-03
1.174473213889311410e+03 1.778279410038922752e-03
1.225972041757686156e+03 3.162277660168379394e-03
1.267225820202925206e+03 5.623413251903490971e-03
1.303201407224735931e+03 1.000000000000000021e-02
1.339377754647895244e+03 1.778279410038922925e-02
1.379270233884166601e+03 3.162277660168379134e-02
1.426098115094594505e+03 5.623413251903491145e-02
1.476666060719516281e+03 1.000000000000000056e-01
1.542814584417133801e+03 1.778279410038922925e-01
1.659808657914113383e+03 3.162277660168379412e-01
1.836516377166930397e+03 5.623413251903490728e-01
2.068455045461228565e+03 1.000000000000000000e+00
2.345454662225020911e+03 1.778279410038922759e+00
2.622877750243870651e+03 3.162277660168379523e+00
2.881880053844019585e+03 5.623413251903491172e+00
3.135560872007400576e+03 1.000000000000000000e+01
3.391550028153539188e+03 1.778279410038922848e+01
3.659188882710436701e+03 3.162277660168379256e+01
3.944705936611978814e+03 5.623413251903490817e+01
4.255068561959887120e+03 1.000000000000000000e+02
4.593489930276721680e+03 1.778279410038922776e+02
4.976931240982510644e+03 3.162277660168379612e+02
