# Temperature (K), Pressure (bars)
1.003372032750836524e+03 5.623413251903490700e-05
1.056255494741248640e+03 1.000000000000000048e-04
1.109138958553258817e+03 1.778279410038922698e-04
1.160716032110247852e+03 3.162277660168379394e-04
1.213413108791506829e+03 5.623413251903490971e-04
1.268281233954154004e+03 1.000000000000000021e-03
1.325591184385996712e+03 1.778279410038922752e-03
1.386996321437351071e+03 3.162277660168379394e-03
1.454059804298777408e+03 5.623413251903490971e-03
1.532808400481680337e+03 1.000000000000000021e-02
1.627194890615811346e+03 1.778279410038922925e-02
1.758304402715975357e+03 3.162277660168379134e-02
1.953804086443947426e+03 5.623413251903491145e-02
2.182467300645426349e+03 1.000000000000000056e-01
2.400167249910359260e+03 1.778279410038922925e-01
2.602874991590218087e+03 3.162277660168379412e-01
2.798095724401376629e+03 5.623413251903490728e-01
2.991962533291509772e+03 1.000000000000000000e+00
3.189014296071308763e+03 1.778279410038922759e+00
3.393279672237955765e+03 3.162277660168379523e+00
3.609199453845054904e+03 5.623413251903491172e+00
3.841632632436605491e+03 1.000000000000000000e+01
4.095915594192157641e+03 1.778279410038922848e+01
4.380299338717658429e+03 3.162277660168379256e+01
4.700540579259442893e+03 5.623413251903490817e+01
5.065614461704678433e+03 1.000000000000000000e+02
5.480289783362500202e+03 1.778279410038922776e+02
5.972773235750333697e+03 3.162277660168379612e+02
