# Temperature (K), Pressure (bars)
1.586187873786241880e+03 3.162277660168379191e-06
1.605927030676976528e+03 5.623413251903491208e-06
1.625666189731986151e+03 1.000000000000000082e-05
1.649909326974554460e+03 1.778279410038922901e-05
1.681525237965917995e+03 3.162277660168379530e-05
1.721549749918426642e+03 5.623413251903490700e-05
1.768839490583531642e+03 1.000000000000000048e-04
1.823482153635809027e+03 1.778279410038922698e-04
1.884072996552337145e+03 3.162277660168379394e-04
1.948463916573775350e+03 5.623413251903490971e-04
2.017873278775731478e+03 1.000000000000000021e-03
2.091174405422433210e+03 1.778279410038922752e-03
2.174643262261630753e+03 3.162277660168379394e-03
2.280948446435107144e+03 5.623413251903490971e-03
2.403018899503240391e+03 1.000000000000000021e-02
2.530257196282378118e+03 1.778279410038922925e-02
2.663582348132168590e+03 3.162277660168379134e-02
2.804484855834120935e+03 5.623413251903491145e-02
2.954569921654791870e+03 1.000000000000000056e-01
3.115717728579369577e+03 1.778279410038922925e-01
3.290110565208327444e+03 3.162277660168379412e-01
3.479879406654847571e+03 5.623413251903490728e-01
3.686989864380865583e+03 1.000000000000000000e+00
3.914357430625989764e+03 1.778279410038922759e+00
4.167411319204714346e+03 3.162277660168379523e+00
4.454719928831478683e+03 5.623413251903491172e+00
4.787952629567791519e+03 1.000000000000000000e+01
5.184852438391605574e+03 1.778279410038922848e+01
5.676849368978973871e+03 3.162277660168379256e+01
6.313018005600058132e+03 5.623413251903490817e+01
7.177396095440660247e+03 1.000000000000000000e+02
8.408918207056653046e+03 1.778279410038922776e+02
1.000000000000000000e+04 3.162277660168379612e+02
