# Temperature (K), Pressure (bars)
8.690364399943126728e+02 3.162277660168379530e-05
9.179709494234026579e+02 5.623413251903490700e-05
9.669054581030574127e+02 1.000000000000000048e-04
1.013587587436286526e+03 1.778279410038922698e-04
1.063628127320576141e+03 3.162277660168379394e-04
1.118435219929668619e+03 5.623413251903490971e-04
1.173792787169004441e+03 1.000000000000000021e-03
1.224319183207911237e+03 1.778279410038922752e-03
1.265155443709112205e+03 3.162277660168379394e-03
1.301578876960875732e+03 5.623413251903490971e-03
1.337917452270183048e+03 1.000000000000000021e-02
1.388684922647045141e+03 1.778279410038922925e-02
1.449686152845946253e+03 3.162277660168379134e-02
1.524879432722768343e+03 5.623413251903491145e-02
1.685641134017458853e+03 1.000000000000000056e-01
1.931932140948883671e+03 1.778279410038922925e-01
2.190902176751394109e+03 3.162277660168379412e-01
2.435579298957345600e+03 5.623413251903490728e-01
2.666332226239661850e+03 1.000000000000000000e+00
2.887262308498118273e+03 1.778279410038922759e+00
3.104699361529545058e+03 3.162277660168379523e+00
3.325304164021250472e+03 5.623413251903491172e+00
3.555416615027108946e+03 1.000000000000000000e+01
3.800985260911477326e+03 1.778279410038922848e+01
4.070086864203508412e+03 3.162277660168379256e+01
4.367457842486961454e+03 5.623413251903490817e+01
4.700240822146428400e+03 1.000000000000000000e+02
5.071934368462839302e+03 1.778279410038922776e+02
5.503511634397321359e+03 3.162277660168379612e+02
