# Temperature (K), Pressure (bars)
9.247942307973498828e+02 3.162277660168379530e-05
9.637439367687780987e+02 5.623413251903490700e-05
1.002693643815080918e+03 1.000000000000000048e-04
1.041134060250459697e+03 1.778279410038922698e-04
1.077076524433048689e+03 3.162277660168379394e-04
1.109397030405142914e+03 5.623413251903490971e-04
1.139615583847307335e+03 1.000000000000000021e-03
1.169644896656064702e+03 1.778279410038922752e-03
1.199500741825781233e+03 3.162277660168379394e-03
1.227979609747586892e+03 5.623413251903490971e-03
1.256044292396890341e+03 1.000000000000000021e-02
1.284009308540348229e+03 1.778279410038922925e-02
1.315285997777951934e+03 3.162277660168379134e-02
1.364008696755171059e+03 5.623413251903491145e-02
1.434718644708647616e+03 1.000000000000000056e-01
1.520790703970145614e+03 1.778279410038922925e-01
1.635270114387148169e+03 3.162277660168379412e-01
1.773926640458935253e+03 5.623413251903490728e-01
1.957670414120985470e+03 1.000000000000000000e+00
2.225915267674715324e+03 1.778279410038922759e+00
2.518334957458991539e+03 3.162277660168379523e+00
2.787367088562996742e+03 5.623413251903491172e+00
3.048600251813051273e+03 1.000000000000000000e+01
3.309405244287886489e+03 1.778279410038922848e+01
3.579306056188555885e+03 3.162277660168379256e+01
3.864880799745602417e+03 5.623413251903490817e+01
4.173289761256643942e+03 1.000000000000000000e+02
4.508037997647461452e+03 1.778279410038922776e+02
4.885677157023226755e+03 3.162277660168379612e+02
