# Temperature (K), Pressure (bars)
1.146283020093251253e+03 9.999999999999999547e-07
1.179206829898191700e+03 1.778279410038922901e-06
1.212130639703631232e+03 3.162277660168379191e-06
1.248838222803545250e+03 5.623413251903491208e-06
1.290926294937147759e+03 1.000000000000000082e-05
1.337685405190393340e+03 1.778279410038922901e-05
1.388799385256950245e+03 3.162277660168379530e-05
1.445346524540460905e+03 5.623413251903490700e-05
1.508089481250760855e+03 1.000000000000000048e-04
1.577843666352555829e+03 1.778279410038922698e-04
1.654066916215953825e+03 3.162277660168379394e-04
1.743248665584039600e+03 5.623413251903490971e-04
1.857018342548652981e+03 1.000000000000000021e-03
1.995199573449293666e+03 1.778279410038922752e-03
2.148998113454194026e+03 3.162277660168379394e-03
2.306404996154313267e+03 5.623413251903490971e-03
2.461483185271320508e+03 1.000000000000000021e-02
2.616915953095849090e+03 1.778279410038922925e-02
2.775422513387855361e+03 3.162277660168379134e-02
2.939580920752279781e+03 5.623413251903491145e-02
3.112032866031426238e+03 1.000000000000000056e-01
3.295195322990282875e+03 1.778279410038922925e-01
3.491226394078907106e+03 3.162277660168379412e-01
3.703447386433604152e+03 5.623413251903490728e-01
3.937993136663204496e+03 1.000000000000000000e+00
4.204362869044474792e+03 1.778279410038922759e+00
4.516555030026735949e+03 3.162277660168379523e+00
4.888579310567361972e+03 5.623413251903491172e+00
5.366026478556918846e+03 1.000000000000000000e+01
6.020488167181984863e+03 1.778279410038922848e+01
6.967385585094555609e+03 3.162277660168379256e+01
8.366206640029304253e+03 5.623413251903490817e+01
1.020973196666273907e+04 1.000000000000000000e+02
1.242747776019159210e+04 1.778279410038922776e+02
1.507089732582793476e+04 3.162277660168379612e+02
