# Temperature (K), Pressure (bars)
8.379834933158107333e+02 1.778279410038922901e-05
8.876615399453777400e+02 3.162277660168379530e-05
9.373395897369637169e+02 5.623413251903490700e-05
9.902659711731863581e+02 1.000000000000000048e-04
1.045254164657756291e+03 1.778279410038922698e-04
1.098898372294207547e+03 3.162277660168379394e-04
1.149941189204751936e+03 5.623413251903490971e-04
1.195998303398965618e+03 1.000000000000000021e-03
1.233931812538438180e+03 1.778279410038922752e-03
1.265587708246718421e+03 3.162277660168379394e-03
1.297644557477748094e+03 5.623413251903490971e-03
1.329873303183833968e+03 1.000000000000000021e-02
1.365147517698528645e+03 1.778279410038922925e-02
1.432341189435603383e+03 3.162277660168379134e-02
1.549419860856383821e+03 5.623413251903491145e-02
1.696482360348954444e+03 1.000000000000000056e-01
1.853578007637446944e+03 1.778279410038922925e-01
2.000690121731549425e+03 3.162277660168379412e-01
2.170380037636585712e+03 5.623413251903490728e-01
2.412028170402009891e+03 1.000000000000000000e+00
2.671118087221787846e+03 1.778279410038922759e+00
2.907622483602928241e+03 3.162277660168379523e+00
3.140707603701116568e+03 5.623413251903491172e+00
3.377687975085452308e+03 1.000000000000000000e+01
3.624908376313910139e+03 1.778279410038922848e+01
3.890413155031340921e+03 3.162277660168379256e+01
4.179831259064229926e+03 5.623413251903490817e+01
4.499900640084995757e+03 1.000000000000000000e+02
4.853574463539901444e+03 1.778279410038922776e+02
5.260467367075840230e+03 3.162277660168379612e+02
