# Temperature (K), Pressure (bars)
1.063491000376921193e+03 1.000000000000000048e-04
1.105018622547114546e+03 1.778279410038922698e-04
1.146546246971289293e+03 3.162277660168379394e-04
1.190876382150853260e+03 5.623413251903490971e-04
1.239181307887987259e+03 1.000000000000000021e-03
1.291100925408257808e+03 1.778279410038922752e-03
1.346545709335137190e+03 3.162277660168379394e-03
1.408930567090683098e+03 5.623413251903490971e-03
1.478425302716362694e+03 1.000000000000000021e-02
1.555583948581421055e+03 1.778279410038922925e-02
1.648823221529071134e+03 3.162277660168379134e-02
1.754464535618743867e+03 5.623413251903491145e-02
1.869890588005472182e+03 1.000000000000000056e-01
2.006277618954050695e+03 1.778279410038922925e-01
2.189785794904579234e+03 3.162277660168379412e-01
2.424164883283896870e+03 5.623413251903490728e-01
2.660265896954426353e+03 1.000000000000000000e+00
2.878574449171944252e+03 1.778279410038922759e+00
3.095436495643493345e+03 3.162277660168379523e+00
3.317064506884526963e+03 5.623413251903491172e+00
3.548343725907716816e+03 1.000000000000000000e+01
3.794632291382254152e+03 1.778279410038922848e+01
4.063600616639828786e+03 3.162277660168379256e+01
4.360647059367947804e+03 5.623413251903490817e+01
4.692998866602469207e+03 1.000000000000000000e+02
5.064275172705254590e+03 1.778279410038922776e+02
5.495859081657082243e+03 3.162277660168379612e+02
