# Temperature (K), Pressure (bars)
1.767360907490813133e+03 1.778279410038922901e-06
1.779535640669267650e+03 3.162277660168379191e-06
1.792934848651038919e+03 5.623413251903491208e-06
1.812494137113830220e+03 1.000000000000000082e-05
1.837099759282132482e+03 1.778279410038922901e-05
1.866496893903421324e+03 3.162277660168379530e-05
1.903105352319630583e+03 5.623413251903490700e-05
1.946880995112247092e+03 1.000000000000000048e-04
1.996925913505450580e+03 1.778279410038922698e-04
2.052546068745513367e+03 3.162277660168379394e-04
2.112803736845628919e+03 5.623413251903490971e-04
2.177073094233172924e+03 1.000000000000000021e-03
2.248045201984853520e+03 1.778279410038922752e-03
2.334192174312185671e+03 3.162277660168379394e-03
2.437584756359964558e+03 5.623413251903490971e-03
2.551547547893643696e+03 1.000000000000000021e-02
2.673275089496294640e+03 1.778279410038922925e-02
2.804016482719468513e+03 3.162277660168379134e-02
2.945143073491466566e+03 5.623413251903491145e-02
3.098471306562594236e+03 1.000000000000000056e-01
3.266481447795732038e+03 1.778279410038922925e-01
3.452309030051056197e+03 3.162277660168379412e-01
3.659299505432781189e+03 5.623413251903490728e-01
3.891091772421271344e+03 1.000000000000000000e+00
4.153647461523268248e+03 1.778279410038922759e+00
4.457967022630093197e+03 3.162277660168379523e+00
4.810505869877931218e+03 5.623413251903491172e+00
5.253675289373843043e+03 1.000000000000000000e+01
5.844003240793256737e+03 1.778279410038922848e+01
6.684978342276271178e+03 3.162277660168379256e+01
7.937807465753888209e+03 5.623413251903490817e+01
9.667544944450486582e+03 1.000000000000000000e+02
1.177375459374689854e+04 1.778279410038922776e+02
1.428172234189207302e+04 3.162277660168379612e+02
