# Temperature (K), Pressure (bars)
1.364293258525223337e+03 9.999999999999999547e-07
1.405556506311452949e+03 1.778279410038922901e-06
1.446819754097761233e+03 3.162277660168379191e-06
1.506504610962739207e+03 5.623413251903491208e-06
1.580643694888040500e+03 1.000000000000000082e-05
1.649873082829809164e+03 1.778279410038922901e-05
1.707873009026208365e+03 3.162277660168379530e-05
1.760669796388135865e+03 5.623413251903490700e-05
1.815875848531399470e+03 1.000000000000000048e-04
1.873935290633024579e+03 1.778279410038922698e-04
1.932644107366014396e+03 3.162277660168379394e-04
1.993288750723789917e+03 5.623413251903490971e-04
2.058385740485971837e+03 1.000000000000000021e-03
2.130045474577566438e+03 1.778279410038922752e-03
2.217050743176598189e+03 3.162277660168379394e-03
2.328056497056272747e+03 5.623413251903490971e-03
2.453414860176984803e+03 1.000000000000000021e-02
2.584668483177424605e+03 1.778279410038922925e-02
2.723509227817543888e+03 3.162277660168379134e-02
2.871319670422478794e+03 5.623413251903491145e-02
3.030008301194816340e+03 1.000000000000000056e-01
3.201679951386068751e+03 1.778279410038922925e-01
3.387949292470472301e+03 3.162277660168379412e-01
3.590065823885846839e+03 5.623413251903490728e-01
3.810657163376388780e+03 1.000000000000000000e+00
4.055319109831402784e+03 1.778279410038922759e+00
4.333094261013965479e+03 3.162277660168379523e+00
4.657268895558384429e+03 5.623413251903491172e+00
5.043074560677223417e+03 1.000000000000000000e+01
5.528392616397632082e+03 1.778279410038922848e+01
6.167039346666344500e+03 3.162277660168379256e+01
7.050325762791476336e+03 5.623413251903490817e+01
8.336855016881867414e+03 1.000000000000000000e+02
1.010846791149513956e+04 1.778279410038922776e+02
1.225710252392211441e+04 3.162277660168379612e+02
