# Temperature (K), Pressure (bars)
1.388716253572741607e+03 9.999999999999999547e-07
1.403456906482616887e+03 1.778279410038922901e-06
1.418197559394846621e+03 3.162277660168379191e-06
1.438322474166947814e+03 5.623413251903491208e-06
1.466014684490440231e+03 1.000000000000000082e-05
1.508289499975918034e+03 1.778279410038922901e-05
1.565789555161720045e+03 3.162277660168379530e-05
1.624811697818842958e+03 5.623413251903490700e-05
1.679167999918061923e+03 1.000000000000000048e-04
1.734772805615307561e+03 1.778279410038922698e-04
1.794206657400984113e+03 3.162277660168379394e-04
1.857238610015834183e+03 5.623413251903490971e-04
1.923142804601576245e+03 1.000000000000000021e-03
1.993789947057146492e+03 1.778279410038922752e-03
2.069150880205517296e+03 3.162277660168379394e-03
2.159511596811245909e+03 5.623413251903490971e-03
2.281065907630199035e+03 1.000000000000000021e-02
2.419385929137511539e+03 1.778279410038922925e-02
2.559561773980502949e+03 3.162277660168379134e-02
2.704805281144717810e+03 5.623413251903491145e-02
2.857022941379467738e+03 1.000000000000000056e-01
3.018232652504560974e+03 1.778279410038922925e-01
3.190410590261317338e+03 3.162277660168379412e-01
3.374971256803067718e+03 5.623413251903490728e-01
3.573079333348829095e+03 1.000000000000000000e+00
3.787212642398554635e+03 1.778279410038922759e+00
4.022027773954579516e+03 3.162277660168379523e+00
4.284104790116913136e+03 5.623413251903491172e+00
4.582170368609854449e+03 1.000000000000000000e+01
4.928904522357588576e+03 1.778279410038922848e+01
5.342205179372972452e+03 3.162277660168379256e+01
5.848163448042628261e+03 5.623413251903490817e+01
6.488919321382259113e+03 1.000000000000000000e+02
7.336239854533403559e+03 1.778279410038922776e+02
8.507438933946528778e+03 3.162277660168379612e+02
