# Temperature (K), Pressure (bars)
1.949061859349889801e+03 9.999999999999999547e-07
1.952657212164851444e+03 1.778279410038922901e-06
1.956252564988064478e+03 3.162277660168379191e-06
1.967467186641891203e+03 5.623413251903491208e-06
1.988101798462258557e+03 1.000000000000000082e-05
2.019348144308819428e+03 1.778279410038922901e-05
2.058842876570606677e+03 3.162277660168379530e-05
2.102237727335116233e+03 5.623413251903490700e-05
2.146970676067368913e+03 1.000000000000000048e-04
2.190417301397653773e+03 1.778279410038922698e-04
2.230447898476338651e+03 3.162277660168379394e-04
2.266686557360261759e+03 5.623413251903490971e-04
2.299891582970434229e+03 1.000000000000000021e-03
2.330538816267159746e+03 1.778279410038922752e-03
2.360150114678420323e+03 3.162277660168379394e-03
2.391022510067016810e+03 5.623413251903490971e-03
2.428098356521710684e+03 1.000000000000000021e-02
2.472633902390599360e+03 1.778279410038922925e-02
2.535571218703403702e+03 3.162277660168379134e-02
2.638523412078179717e+03 5.623413251903491145e-02
2.772867447573728441e+03 1.000000000000000056e-01
2.920426442111796860e+03 1.778279410038922925e-01
3.080892822045917001e+03 3.162277660168379412e-01
3.256359622600179591e+03 5.623413251903490728e-01
3.447265236760666994e+03 1.000000000000000000e+00
3.653775838153116638e+03 1.778279410038922759e+00
3.877995730273368281e+03 3.162277660168379523e+00
4.124529960355791445e+03 5.623413251903491172e+00
4.400030300000758871e+03 1.000000000000000000e+01
4.713387931597859279e+03 1.778279410038922848e+01
5.078687207912155827e+03 3.162277660168379256e+01
5.512128818717856120e+03 5.623413251903490817e+01
6.038848377785273442e+03 1.000000000000000000e+02
6.698738037897753202e+03 1.778279410038922776e+02
7.556346652378043473e+03 3.162277660168379612e+02
