# Temperature (K), Pressure (bars)
9.703941518088648763e+02 3.162277660168379394e-04
1.028206906782539818e+03 5.623413251903490971e-04
1.086019663038925273e+03 1.000000000000000021e-03
1.141792925562525397e+03 1.778279410038922752e-03
1.196983815469738374e+03 3.162277660168379394e-03
1.253555686543202910e+03 5.623413251903490971e-03
1.314012267456802419e+03 1.000000000000000021e-02
1.381872289284300450e+03 1.778279410038922925e-02
1.462828261238380037e+03 3.162277660168379134e-02
1.564116291860145566e+03 5.623413251903491145e-02
1.710637255497483693e+03 1.000000000000000056e-01
1.926130561006160178e+03 1.778279410038922925e-01
2.179262922756541229e+03 3.162277660168379412e-01
2.424926362140172387e+03 5.623413251903490728e-01
2.654478947130505276e+03 1.000000000000000000e+00
2.874578165437995722e+03 1.778279410038922759e+00
3.092012012526484341e+03 3.162277660168379523e+00
3.312941474721924806e+03 5.623413251903491172e+00
3.543144699300332377e+03 1.000000000000000000e+01
3.788366670434409571e+03 1.778279410038922848e+01
4.056431330515664740e+03 3.162277660168379256e+01
4.352272606545274357e+03 5.623413251903490817e+01
4.682954847177599731e+03 1.000000000000000000e+02
5.051785859630030245e+03 1.778279410038922776e+02
5.480307915921092899e+03 3.162277660168379612e+02
