# Temperature (K), Pressure (bars)
2.174070309963831278e+03 9.999999999999999547e-07
2.194243329758214713e+03 1.778279410038922901e-06
2.214416349552598149e+03 3.162277660168379191e-06
2.239905654431939638e+03 5.623413251903491208e-06
2.267562835371336405e+03 1.000000000000000082e-05
2.296226974972479184e+03 1.778279410038922901e-05
2.325057504551042712e+03 3.162277660168379530e-05
2.350975286092325859e+03 5.623413251903490700e-05
2.372940393087239954e+03 1.000000000000000048e-04
2.392961629789465405e+03 1.778279410038922698e-04
2.415078154415236895e+03 3.162277660168379394e-04
2.442967901972455365e+03 5.623413251903490971e-04
2.478729095449705255e+03 1.000000000000000021e-03
2.523913659881456624e+03 1.778279410038922752e-03
2.579854354171162868e+03 3.162277660168379394e-03
2.648425942728503287e+03 5.623413251903490971e-03
2.729113287424745977e+03 1.000000000000000021e-02
2.825306717345383277e+03 1.778279410038922925e-02
2.944212773095644479e+03 3.162277660168379134e-02
3.082755494015918885e+03 5.623413251903491145e-02
3.239609638406541762e+03 1.000000000000000056e-01
3.422712323645940614e+03 1.778279410038922925e-01
3.617871285399519820e+03 3.162277660168379412e-01
3.840189480513241051e+03 5.623413251903490728e-01
4.098027568809512559e+03 1.000000000000000000e+00
4.393631523749680127e+03 1.778279410038922759e+00
4.761459079185823612e+03 3.162277660168379523e+00
5.248828726883800300e+03 5.623413251903491172e+00
5.954195191689495914e+03 1.000000000000000000e+01
7.050576821228663903e+03 1.778279410038922848e+01
8.620876505248854301e+03 3.162277660168379256e+01
1.000000000000000000e+04 5.623413251903490817e+01
1.000000000000000000e+04 1.000000000000000000e+02
1.000000000000000000e+04 1.778279410038922776e+02
1.000000000000000000e+04 3.162277660168379612e+02
