# Temperature (K), Pressure (bars)
8.831309074730999100e+02 1.000000000000000048e-04
9.271261453496781542e+02 1.778279410038922698e-04
9.711213823605314701e+02 3.162277660168379394e-04
1.013309213253536768e+03 5.623413251903490971e-04
1.054401434441562969e+03 1.000000000000000021e-03
1.093393344584974329e+03 1.778279410038922752e-03
1.129220166956704134e+03 3.162277660168379394e-03
1.164534421446530814e+03 5.623413251903490971e-03
1.203690317391706003e+03 1.000000000000000021e-02
1.251634874529830086e+03 1.778279410038922925e-02
1.310011363168959633e+03 3.162277660168379134e-02
1.372680916673692764e+03 5.623413251903491145e-02
1.437131068155133789e+03 1.000000000000000056e-01
1.506379681429805032e+03 1.778279410038922925e-01
1.583314922321611903e+03 3.162277660168379412e-01
1.724541720119707861e+03 5.623413251903490728e-01
1.972468795620053243e+03 1.000000000000000000e+00
2.259877106389209985e+03 1.778279410038922759e+00
2.535339235926130641e+03 3.162277660168379523e+00
2.801758025121706396e+03 5.623413251903491172e+00
3.061132583432670344e+03 1.000000000000000000e+01
3.320545495275630401e+03 1.778279410038922848e+01
3.589909657740880448e+03 3.162277660168379256e+01
3.875400774578305573e+03 5.623413251903490817e+01
4.184071377929787559e+03 1.000000000000000000e+02
4.519509818864726185e+03 1.778279410038922776e+02
4.897886538766535523e+03 3.162277660168379612e+02
