# Temperature (K), Pressure (bars)
1.100849935429951074e+03 1.778279410038922901e-06
1.139902604733966655e+03 3.162277660168379191e-06
1.178955276140745809e+03 5.623413251903491208e-06
1.222482186771817396e+03 1.000000000000000082e-05
1.270091419104501938e+03 1.778279410038922901e-05
1.320974548511061812e+03 3.162277660168379530e-05
1.375160580507420718e+03 5.623413251903490700e-05
1.434127176413500820e+03 1.000000000000000048e-04
1.498550214371476386e+03 1.778279410038922698e-04
1.570273087163546052e+03 3.162277660168379394e-04
1.652485190772951455e+03 5.623413251903490971e-04
1.749287372118192252e+03 1.000000000000000021e-03
1.876520414884388174e+03 1.778279410038922752e-03
2.037806898382487816e+03 3.162277660168379394e-03
2.208426942287360816e+03 5.623413251903490971e-03
2.373107633267282381e+03 1.000000000000000021e-02
2.534396547787830514e+03 1.778279410038922925e-02
2.695788060719592067e+03 3.162277660168379134e-02
2.860179158576340342e+03 5.623413251903491145e-02
3.030111467071851166e+03 1.000000000000000056e-01
3.207814323257694468e+03 1.778279410038922925e-01
3.395217425719413313e+03 3.162277660168379412e-01
3.594987401465357834e+03 5.623413251903490728e-01
3.811798573320814739e+03 1.000000000000000000e+00
4.052468148515094526e+03 1.778279410038922759e+00
4.326160204748608521e+03 3.162277660168379523e+00
4.645894056866140090e+03 5.623413251903491172e+00
5.027581581993839791e+03 1.000000000000000000e+01
5.507305461561347329e+03 1.778279410038922848e+01
6.141974514339793132e+03 3.162277660168379256e+01
7.026261302709584015e+03 5.623413251903490817e+01
8.310594564218987216e+03 1.000000000000000000e+02
1.000000000000000000e+04 1.778279410038922776e+02
1.000000000000000000e+04 3.162277660168379612e+02
