# Temperature (K), Pressure (bars)
1.133335748000480635e+03 9.999999999999999547e-07
1.149223017662027360e+03 1.778279410038922901e-06
1.165110287337947739e+03 3.162277660168379191e-06
1.186506054366744593e+03 5.623413251903491208e-06
1.215297610651560717e+03 1.000000000000000082e-05
1.250485514199207500e+03 1.778279410038922901e-05
1.291713124452743386e+03 3.162277660168379530e-05
1.338719488876083005e+03 5.623413251903490700e-05
1.390938432305486913e+03 1.000000000000000048e-04
1.450352296871023100e+03 1.778279410038922698e-04
1.515881799619584172e+03 3.162277660168379394e-04
1.590089863029905246e+03 5.623413251903490971e-04
1.679959005274484525e+03 1.000000000000000021e-03
1.779467107173247314e+03 1.778279410038922752e-03
1.878390729841132725e+03 3.162277660168379394e-03
1.994235746095549985e+03 5.623413251903490971e-03
2.148081774249256341e+03 1.000000000000000021e-02
2.316083098956795766e+03 1.778279410038922925e-02
2.477523493014828091e+03 3.162277660168379134e-02
2.637784632335544302e+03 5.623413251903491145e-02
2.800110816699779207e+03 1.000000000000000056e-01
2.967239165258391949e+03 1.778279410038922925e-01
3.141340818068282715e+03 3.162277660168379412e-01
3.324030050072178256e+03 5.623413251903490728e-01
3.517247414798676800e+03 1.000000000000000000e+00
3.724445496309766895e+03 1.778279410038922759e+00
3.950558799987742987e+03 3.162277660168379523e+00
4.201556801617127348e+03 5.623413251903491172e+00
4.484840495402364468e+03 1.000000000000000000e+01
4.810510496818864340e+03 1.778279410038922848e+01
5.195426991995510434e+03 3.162277660168379256e+01
5.658182713606129255e+03 5.623413251903490817e+01
6.229987676428700979e+03 1.000000000000000000e+02
6.961711352333602008e+03 1.778279410038922776e+02
7.937871064819080857e+03 3.162277660168379612e+02
