# Temperature (K), Pressure (bars)
1.628082378992464783e+03 9.999999999999999547e-07
1.635263373192951349e+03 1.778279410038922901e-06
1.642444367398656595e+03 3.162277660168379191e-06
1.653225629147593736e+03 5.623413251903491208e-06
1.669118786629547003e+03 1.000000000000000082e-05
1.692172543439149649e+03 1.778279410038922901e-05
1.722732315690885116e+03 3.162277660168379530e-05
1.760047889088084958e+03 5.623413251903490700e-05
1.805368922048258582e+03 1.000000000000000048e-04
1.857543174948259548e+03 1.778279410038922698e-04
1.914785349358406165e+03 3.162277660168379394e-04
1.976102813690360108e+03 5.623413251903490971e-04
2.042495949608960473e+03 1.000000000000000021e-03
2.113150728515116043e+03 1.778279410038922752e-03
2.194167690403804500e+03 3.162277660168379394e-03
2.298316357766253532e+03 5.623413251903490971e-03
2.418867188085159796e+03 1.000000000000000021e-02
2.545230866598581542e+03 1.778279410038922925e-02
2.678013962860786705e+03 3.162277660168379134e-02
2.818634584477579210e+03 5.623413251903491145e-02
2.968788656730641833e+03 1.000000000000000056e-01
3.130502103402292050e+03 1.778279410038922925e-01
3.306068150206265727e+03 3.162277660168379412e-01
3.497553920092860608e+03 5.623413251903490728e-01
3.706787989240423485e+03 1.000000000000000000e+00
3.936720544242783490e+03 1.778279410038922759e+00
4.193296124960414090e+03 3.162277660168379523e+00
4.485485913471360618e+03 5.623413251903491172e+00
4.823261311449752611e+03 1.000000000000000000e+01
5.231021152545021323e+03 1.778279410038922848e+01
5.740594773726543281e+03 3.162277660168379256e+01
6.407943455782025012e+03 5.623413251903490817e+01
7.332265909657680822e+03 1.000000000000000000e+02
8.659959116344902213e+03 1.778279410038922776e+02
1.043777723415507717e+04 3.162277660168379612e+02
