# Temperature (K), Pressure (bars)
1.673186362516182498e+03 1.778279410038922901e-05
1.690296046420961147e+03 3.162277660168379530e-05
1.707405733503398096e+03 5.623413251903490700e-05
1.731195566094912692e+03 1.000000000000000048e-04
1.760132654984548935e+03 1.778279410038922698e-04
1.792859917746043266e+03 3.162277660168379394e-04
1.829027465818361634e+03 5.623413251903490971e-04
1.865016288501858071e+03 1.000000000000000021e-03
1.899583120628616825e+03 1.778279410038922752e-03
1.933872030978359135e+03 3.162277660168379394e-03
1.968849728764941119e+03 5.623413251903490971e-03
2.006283731529911847e+03 1.000000000000000021e-02
2.046320695050550057e+03 1.778279410038922925e-02
2.090396774484260277e+03 3.162277660168379134e-02
2.139260099149203143e+03 5.623413251903491145e-02
2.200580154486506672e+03 1.000000000000000056e-01
2.273478317444184995e+03 1.778279410038922925e-01
2.388244824176507791e+03 3.162277660168379412e-01
2.582970658782900500e+03 5.623413251903490728e-01
2.801685575734146823e+03 1.000000000000000000e+00
3.006296298686229420e+03 1.778279410038922759e+00
3.215727331590191625e+03 3.162277660168379523e+00
3.434712193312986074e+03 5.623413251903491172e+00
3.666594059125721742e+03 1.000000000000000000e+01
3.915997466977619297e+03 1.778279410038922848e+01
4.190081005511519834e+03 3.162277660168379256e+01
4.495161065077314561e+03 5.623413251903490817e+01
4.839120790928703173e+03 1.000000000000000000e+02
5.225429935950241997e+03 1.778279410038922776e+02
5.678887036716519106e+03 3.162277660168379612e+02
