# Temperature (K), Pressure (bars)
2.293444920919491324e+03 9.999999999999999547e-07
2.316040046724309377e+03 1.778279410038922901e-06
2.338635172529127431e+03 3.162277660168379191e-06
2.364820142925396794e+03 5.623413251903491208e-06
2.391997184049031148e+03 1.000000000000000082e-05
2.419552775036056573e+03 1.778279410038922901e-05
2.447603168463157999e+03 3.162277660168379530e-05
2.474019277572806004e+03 5.623413251903490700e-05
2.495146768848771899e+03 1.000000000000000048e-04
2.507939170156711043e+03 1.778279410038922698e-04
2.515707811462749760e+03 3.162277660168379394e-04
2.528135626365367898e+03 5.623413251903490971e-04
2.553202459666071263e+03 1.000000000000000021e-03
2.592949534233262966e+03 1.778279410038922752e-03
2.646122622393658276e+03 3.162277660168379394e-03
2.712790288049459377e+03 5.623413251903490971e-03
2.793176814116494370e+03 1.000000000000000021e-02
2.891220391706639930e+03 1.778279410038922925e-02
3.012722777486896575e+03 3.162277660168379134e-02
3.153978633245382753e+03 5.623413251903491145e-02
3.314069301611909850e+03 1.000000000000000056e-01
3.501854639576934460e+03 1.778279410038922925e-01
3.707687727568587434e+03 3.162277660168379412e-01
3.949780029661729259e+03 5.623413251903490728e-01
4.234362898361201587e+03 1.000000000000000000e+00
4.579918338466794921e+03 1.778279410038922759e+00
5.043052824554922154e+03 3.162277660168379523e+00
5.729218114925763075e+03 5.623413251903491172e+00
6.818356076477002716e+03 1.000000000000000000e+01
8.371911821520465310e+03 1.778279410038922848e+01
1.000000000000000000e+04 3.162277660168379256e+01
1.000000000000000000e+04 5.623413251903490817e+01
1.000000000000000000e+04 1.000000000000000000e+02
1.000000000000000000e+04 1.778279410038922776e+02
1.000000000000000000e+04 3.162277660168379612e+02
