# Temperature (K), Pressure (bars)
1.124793302060085352e+03 1.778279410038922901e-05
1.157739629189321931e+03 3.162277660168379530e-05
1.190685959326240891e+03 5.623413251903490700e-05
1.228707476628685527e+03 1.000000000000000048e-04
1.272117414297581945e+03 1.778279410038922698e-04
1.320262933646230294e+03 3.162277660168379394e-04
1.372861286004237854e+03 5.623413251903490971e-04
1.431239661214170383e+03 1.000000000000000021e-03
1.496289027517640307e+03 1.778279410038922752e-03
1.567374391910001577e+03 3.162277660168379394e-03
1.646375801604923709e+03 5.623413251903490971e-03
1.741453982357387758e+03 1.000000000000000021e-02
1.856755387339265326e+03 1.778279410038922925e-02
1.981902930348259360e+03 3.162277660168379134e-02
2.133596623945513784e+03 5.623413251903491145e-02
2.328091290002207188e+03 1.000000000000000056e-01
2.526535456346357932e+03 1.778279410038922925e-01
2.710156755757583142e+03 3.162277660168379412e-01
2.893114872524224211e+03 5.623413251903490728e-01
3.080367241192511301e+03 1.000000000000000000e+00
3.275014225496474410e+03 1.778279410038922759e+00
3.479808506279391167e+03 3.162277660168379523e+00
3.698318809477645573e+03 5.623413251903491172e+00
3.935162695660083955e+03 1.000000000000000000e+01
4.195736200994237151e+03 1.778279410038922848e+01
4.486427690577449539e+03 3.162277660168379256e+01
4.815610590047753249e+03 5.623413251903490817e+01
5.198580754640549458e+03 1.000000000000000000e+02
5.645395580486796462e+03 1.778279410038922776e+02
6.175635629173925736e+03 3.162277660168379612e+02
