# Temperature (K), Pressure (bars)
9.279102259922947269e+02 3.162277660168379394e-04
9.845718462620143328e+02 5.623413251903490971e-04
1.041233467902452730e+03 1.000000000000000021e-03
1.096051343396243738e+03 1.778279410038922752e-03
1.150045891715885318e+03 3.162277660168379394e-03
1.205320801390453198e+03 5.623413251903490971e-03
1.264084894679288936e+03 1.000000000000000021e-02
1.330036200789496434e+03 1.778279410038922925e-02
1.411914949707838332e+03 3.162277660168379134e-02
1.530350918888678734e+03 5.623413251903491145e-02
1.692531453735560035e+03 1.000000000000000056e-01
1.901802131466649371e+03 1.778279410038922925e-01
2.156030707416278346e+03 3.162277660168379412e-01
2.410830690553862951e+03 5.623413251903490728e-01
2.642871237874137478e+03 1.000000000000000000e+00
2.864465692546135870e+03 1.778279410038922759e+00
3.082592476948661442e+03 3.162277660168379523e+00
3.303654564585943717e+03 5.623413251903491172e+00
3.533803106927244244e+03 1.000000000000000000e+01
3.778967766086276242e+03 1.778279410038922848e+01
4.047124372897611920e+03 3.162277660168379256e+01
4.343075663711213565e+03 5.623413251903490817e+01
4.673882257313765876e+03 1.000000000000000000e+02
5.042844632864876075e+03 1.778279410038922776e+02
5.471564294178842829e+03 3.162277660168379612e+02
