# Temperature (K), Pressure (bars)
8.392389584536313123e+02 3.162277660168379530e-05
8.923629811475295810e+02 5.623413251903490700e-05
9.454870064043323055e+02 1.000000000000000048e-04
9.978073007249100783e+02 1.778279410038922698e-04
1.051526193848139201e+03 3.162277660168379394e-04
1.109986490720366874e+03 5.623413251903490971e-04
1.175965036075273474e+03 1.000000000000000021e-03
1.251577465829439916e+03 1.778279410038922752e-03
1.341577231015793814e+03 3.162277660168379394e-03
1.451803839711326191e+03 5.623413251903490971e-03
1.615042458750169772e+03 1.000000000000000021e-02
1.850829151057355830e+03 1.778279410038922925e-02
2.103481162230670179e+03 3.162277660168379134e-02
2.329178660757529542e+03 5.623413251903491145e-02
2.530968274801481130e+03 1.000000000000000056e-01
2.716251352463348212e+03 1.778279410038922925e-01
2.893540653948579347e+03 3.162277660168379412e-01
3.069518113928828370e+03 5.623413251903490728e-01
3.249760339050852053e+03 1.000000000000000000e+00
3.439122752188149661e+03 1.778279410038922759e+00
3.641985920328181692e+03 3.162277660168379523e+00
3.862698909624466978e+03 5.623413251903491172e+00
4.106043161159210285e+03 1.000000000000000000e+01
4.377729669109854512e+03 1.778279410038922848e+01
4.684991619590553455e+03 3.162277660168379256e+01
5.037806914316268376e+03 5.623413251903490817e+01
5.454356566947100873e+03 1.000000000000000000e+02
5.948274158358060049e+03 1.778279410038922776e+02
6.545807618328496574e+03 3.162277660168379612e+02
