# Temperature (K), Pressure (bars)
2.325038560882818274e+03 9.999999999999999547e-07
2.351585317396836672e+03 1.778279410038922901e-06
2.378132073910855070e+03 3.162277660168379191e-06
2.405626382822534651e+03 5.623413251903491208e-06
2.435819035650571550e+03 1.000000000000000082e-05
2.467528825838195189e+03 1.778279410038922901e-05
2.499261971918952895e+03 3.162277660168379530e-05
2.529690025704390791e+03 5.623413251903490700e-05
2.556578574262026450e+03 1.000000000000000048e-04
2.578300988209010484e+03 1.778279410038922698e-04
2.596017302225649019e+03 3.162277660168379394e-04
2.615365124252907208e+03 5.623413251903490971e-04
2.643834138904999691e+03 1.000000000000000021e-03
2.686340656205014056e+03 1.778279410038922752e-03
2.744203980350546772e+03 3.162277660168379394e-03
2.817666104656489551e+03 5.623413251903490971e-03
2.907351705341682646e+03 1.000000000000000021e-02
3.014645359820413887e+03 1.778279410038922925e-02
3.143035102665584873e+03 3.162277660168379134e-02
3.296457181103667153e+03 5.623413251903491145e-02
3.480881111885942119e+03 1.000000000000000056e-01
3.717662472082607565e+03 1.778279410038922925e-01
3.973061350688500170e+03 3.162277660168379412e-01
4.296346617351626264e+03 5.623413251903490728e-01
4.753581220369444054e+03 1.000000000000000000e+00
5.484970725297846002e+03 1.778279410038922759e+00
6.651508369981509531e+03 3.162277660168379523e+00
8.219085188951115924e+03 5.623413251903491172e+00
9.938458273182110133e+03 1.000000000000000000e+01
1.000000000000000000e+04 1.778279410038922848e+01
1.000000000000000000e+04 3.162277660168379256e+01
1.000000000000000000e+04 5.623413251903490817e+01
1.000000000000000000e+04 1.000000000000000000e+02
1.000000000000000000e+04 1.778279410038922776e+02
1.000000000000000000e+04 3.162277660168379612e+02
