# Temperature (K), Pressure (bars)
9.837020300542758378e+02 5.623413251903490971e-04
1.022639254295356068e+03 1.000000000000000021e-03
1.061576480484175590e+03 1.778279410038922752e-03
1.102382198544543371e+03 3.162277660168379394e-03
1.144720624717027022e+03 5.623413251903490971e-03
1.188882658326307592e+03 1.000000000000000021e-02
1.235836606301848178e+03 1.778279410038922925e-02
1.285837035636798873e+03 3.162277660168379134e-02
1.341197165570360767e+03 5.623413251903491145e-02
1.408150535643668945e+03 1.000000000000000056e-01
1.489861295518534689e+03 1.778279410038922925e-01
1.588612819677630569e+03 3.162277660168379412e-01
1.715790474067587866e+03 5.623413251903490728e-01
1.865290152384972544e+03 1.000000000000000000e+00
2.050412274398317550e+03 1.778279410038922759e+00
2.303034505443406943e+03 3.162277660168379523e+00
2.587210856430801869e+03 5.623413251903491172e+00
2.864388242858884041e+03 1.000000000000000000e+01
3.138333140959967750e+03 1.778279410038922848e+01
3.416125469713126222e+03 3.162277660168379256e+01
3.704669538299088799e+03 5.623413251903490817e+01
4.011594277594713276e+03 1.000000000000000000e+02
4.341120462461047282e+03 1.778279410038922776e+02
4.708774339925058484e+03 3.162277660168379612e+02
