# Temperature (K), Pressure (bars)
8.481142399605980700e+02 5.623413251903490971e-04
8.935715974546251346e+02 1.000000000000000021e-03
9.390289559983010577e+02 1.778279410038922752e-03
9.834553243684366635e+02 3.162277660168379394e-03
1.028349162552962980e+03 5.623413251903490971e-03
1.074215629968970006e+03 1.000000000000000021e-02
1.121426519305530746e+03 1.778279410038922925e-02
1.171825697922469544e+03 3.162277660168379134e-02
1.228972839477936986e+03 5.623413251903491145e-02
1.297876136957482004e+03 1.000000000000000056e-01
1.387539196081607088e+03 1.778279410038922925e-01
1.517976693935604317e+03 3.162277660168379412e-01
1.704813845507359474e+03 5.623413251903490728e-01
1.946819613443390153e+03 1.000000000000000000e+00
2.224458311550317376e+03 1.778279410038922759e+00
2.504532769699349956e+03 3.162277660168379523e+00
2.773005069701818684e+03 5.623413251903491172e+00
3.035009272815007080e+03 1.000000000000000000e+01
3.296542613053642981e+03 1.778279410038922848e+01
3.566932984482904885e+03 3.162277660168379256e+01
3.852640336813532485e+03 5.623413251903490817e+01
4.160828912651757491e+03 1.000000000000000000e+02
4.495094184068950199e+03 1.778279410038922776e+02
4.871886128863412523e+03 3.162277660168379612e+02
