# Temperature (K), Pressure (bars)
1.039504440681917004e+03 9.999999999999999547e-07
1.039672860953270629e+03 1.778279410038922901e-06
1.039841281231545054e+03 3.162277660168379191e-06
1.046839227589053280e+03 5.623413251903491208e-06
1.060993726091496455e+03 1.000000000000000082e-05
1.081669936113997210e+03 1.778279410038922901e-05
1.109338141774204360e+03 3.162277660168379530e-05
1.141955229255005634e+03 5.623413251903490700e-05
1.178693448211170789e+03 1.000000000000000048e-04
1.220532477313210393e+03 1.778279410038922698e-04
1.266902199667013065e+03 3.162277660168379394e-04
1.318494615562186482e+03 5.623413251903490971e-04
1.377734972145790380e+03 1.000000000000000021e-03
1.446062054406903144e+03 1.778279410038922752e-03
1.521792288047603051e+03 3.162277660168379394e-03
1.607961526509348005e+03 5.623413251903490971e-03
1.706629061110308839e+03 1.000000000000000021e-02
1.812770764918312125e+03 1.778279410038922925e-02
1.921199714950169891e+03 3.162277660168379134e-02
2.058800376315146423e+03 5.623413251903491145e-02
2.251695006142683269e+03 1.000000000000000056e-01
2.458605741982706149e+03 1.778279410038922925e-01
2.650452650725627791e+03 3.162277660168379412e-01
2.838938556444331880e+03 5.623413251903490728e-01
3.029434953392910757e+03 1.000000000000000000e+00
3.225347585316202185e+03 1.778279410038922759e+00
3.429775162897264181e+03 3.162277660168379523e+00
3.646735126764994675e+03 5.623413251903491172e+00
3.881039273985953514e+03 1.000000000000000000e+01
4.137989334089438671e+03 1.778279410038922848e+01
4.423716703230211351e+03 3.162277660168379256e+01
4.746159485276615669e+03 5.623413251903490817e+01
5.119941924806771567e+03 1.000000000000000000e+02
5.553915498550713892e+03 1.778279410038922776e+02
6.066243788160576514e+03 3.162277660168379612e+02
