# Temperature (K), Pressure (bars)
1.202374392297253053e+03 3.162277660168379530e-05
1.239398162023896930e+03 5.623413251903490700e-05
1.276421934959454120e+03 1.000000000000000048e-04
1.320327703003847091e+03 1.778279410038922698e-04
1.368013576007950860e+03 3.162277660168379394e-04
1.423442994549562627e+03 5.623413251903490971e-04
1.495129678258980221e+03 1.000000000000000021e-03
1.570110219791532245e+03 1.778279410038922752e-03
1.637397443178123467e+03 3.162277660168379394e-03
1.703122163894813866e+03 5.623413251903490971e-03
1.773354371831696199e+03 1.000000000000000021e-02
1.849485998833116128e+03 1.778279410038922925e-02
1.938383384277183723e+03 3.162277660168379134e-02
2.039721748096028250e+03 5.623413251903491145e-02
2.175272145922812342e+03 1.000000000000000056e-01
2.370784239525312842e+03 1.778279410038922925e-01
2.579645369712502088e+03 3.162277660168379412e-01
2.772138238008310054e+03 5.623413251903490728e-01
2.964727281693026725e+03 1.000000000000000000e+00
3.162489456909970158e+03 1.778279410038922759e+00
3.368256505399208891e+03 3.162277660168379523e+00
3.585336612207112466e+03 5.623413251903491172e+00
3.818230373972884081e+03 1.000000000000000000e+01
4.072329741271747025e+03 1.778279410038922848e+01
4.355693872153774464e+03 3.162277660168379256e+01
4.674477127403473787e+03 5.623413251903490817e+01
5.037646192110672928e+03 1.000000000000000000e+02
5.449897329351550070e+03 1.778279410038922776e+02
5.939351428856174607e+03 3.162277660168379612e+02
