# Temperature (K), Pressure (bars)
8.001956232686587782e+02 1.000000000000000021e-03
8.357910874022225016e+02 1.778279410038922752e-03
8.713865529637234886e+02 3.162277660168379394e-03
9.081054923373761767e+02 5.623413251903490971e-03
9.453698046672789133e+02 1.000000000000000021e-02
9.831004239204663691e+02 1.778279410038922925e-02
1.021729925740147337e+03 3.162277660168379134e-02
1.062052277264456734e+03 5.623413251903491145e-02
1.106746339014301384e+03 1.000000000000000056e-01
1.159162604540204711e+03 1.778279410038922925e-01
1.224174911007963146e+03 3.162277660168379412e-01
1.306238238278145673e+03 5.623413251903490728e-01
1.418183466093496463e+03 1.000000000000000000e+00
1.574776728078481483e+03 1.778279410038922759e+00
1.789407975899144731e+03 3.162277660168379523e+00
2.064187320188327249e+03 5.623413251903491172e+00
2.365052783468769121e+03 1.000000000000000000e+01
2.667732800629813937e+03 1.778279410038922848e+01
2.974473335948125623e+03 3.162277660168379256e+01
3.282455677939618454e+03 5.623413251903490817e+01
3.597472895946392782e+03 1.000000000000000000e+02
3.924424995774637864e+03 1.778279410038922776e+02
4.277876150808016973e+03 3.162277660168379612e+02
