# Temperature (K), Pressure (bars)
1.641295180196606907e+03 9.999999999999999547e-07
1.674251728794242126e+03 1.778279410038922901e-06
1.707208277391876436e+03 3.162277660168379191e-06
1.744964905224539734e+03 5.623413251903491208e-06
1.787461760013370849e+03 1.000000000000000082e-05
1.835219080803229190e+03 1.778279410038922901e-05
1.886977124178831673e+03 3.162277660168379530e-05
1.941310881184301024e+03 5.623413251903490700e-05
1.998639921425731700e+03 1.000000000000000048e-04
2.059161037355478129e+03 1.778279410038922698e-04
2.123352290359165181e+03 3.162277660168379394e-04
2.191940046026728396e+03 5.623413251903490971e-04
2.270076331441228831e+03 1.000000000000000021e-03
2.364473918311990928e+03 1.778279410038922752e-03
2.472755593941559709e+03 3.162277660168379394e-03
2.590451772110428919e+03 5.623413251903490971e-03
2.717650133026570529e+03 1.000000000000000021e-02
2.855389477068589258e+03 1.778279410038922925e-02
3.005571609370470014e+03 3.162277660168379134e-02
3.171562128115884661e+03 5.623413251903491145e-02
3.361702344122280920e+03 1.000000000000000056e-01
3.554077025694538406e+03 1.778279410038922925e-01
3.776806205633746686e+03 3.162277660168379412e-01
4.040766309324500526e+03 5.623413251903490728e-01
4.348984214375695046e+03 1.000000000000000000e+00
4.753626993064536691e+03 1.778279410038922759e+00
5.338611326249942977e+03 3.162277660168379523e+00
6.228979483907080976e+03 5.623413251903491172e+00
7.558537674386087929e+03 1.000000000000000000e+01
9.278441042454987837e+03 1.778279410038922848e+01
1.000000000000000000e+04 3.162277660168379256e+01
1.000000000000000000e+04 5.623413251903490817e+01
1.000000000000000000e+04 1.000000000000000000e+02
1.000000000000000000e+04 1.778279410038922776e+02
1.000000000000000000e+04 3.162277660168379612e+02
