# Temperature (K), Pressure (bars)
2.204625006865954674e+03 9.999999999999999547e-07
2.222009214551191690e+03 1.778279410038922901e-06
2.239393422236776132e+03 3.162277660168379191e-06
2.258409874363087056e+03 5.623413251903491208e-06
2.277726090507932895e+03 1.000000000000000082e-05
2.296166406245016788e+03 1.778279410038922901e-05
2.314010382882313934e+03 3.162277660168379530e-05
2.331801760277913672e+03 5.623413251903490700e-05
2.350350110621145632e+03 1.000000000000000048e-04
2.370229325540503851e+03 1.778279410038922698e-04
2.391215621475917033e+03 3.162277660168379394e-04
2.412861171153667783e+03 5.623413251903490971e-04
2.435567451727806201e+03 1.000000000000000021e-03
2.460471550927601129e+03 1.778279410038922752e-03
2.489413956162948580e+03 3.162277660168379394e-03
2.523622452325681479e+03 5.623413251903490971e-03
2.566301925642525930e+03 1.000000000000000021e-02
2.617807634894206785e+03 1.778279410038922925e-02
2.687409826527404675e+03 3.162277660168379134e-02
2.792793849933564161e+03 5.623413251903491145e-02
2.925203925343802894e+03 1.000000000000000056e-01
3.070779211656487860e+03 1.778279410038922925e-01
3.231305077567799799e+03 3.162277660168379412e-01
3.409486253629536805e+03 5.623413251903490728e-01
3.607478974406616544e+03 1.000000000000000000e+00
3.826816456838118029e+03 1.778279410038922759e+00
4.070151992336928743e+03 3.162277660168379523e+00
4.343150905031211551e+03 5.623413251903491172e+00
4.655133855933841915e+03 1.000000000000000000e+01
5.018197646984876883e+03 1.778279410038922848e+01
5.456315853589503604e+03 3.162277660168379256e+01
6.002141405497911364e+03 5.623413251903490817e+01
6.712343171998525577e+03 1.000000000000000000e+02
7.683353786338627287e+03 1.778279410038922776e+02
9.048792201295002087e+03 3.162277660168379612e+02
