# Temperature (K), Pressure (bars)
9.826443744244965046e+02 1.000000000000000021e-03
1.031128363864482708e+03 1.778279410038922752e-03
1.079612355005661129e+03 3.162277660168379394e-03
1.127544022048120041e+03 5.623413251903490971e-03
1.175430610729213640e+03 1.000000000000000021e-02
1.224800195237673279e+03 1.778279410038922925e-02
1.276407004693810222e+03 3.162277660168379134e-02
1.331950286032323220e+03 5.623413251903491145e-02
1.397293898124486077e+03 1.000000000000000056e-01
1.485165933968928812e+03 1.778279410038922925e-01
1.604163127541381300e+03 3.162277660168379412e-01
1.756402070782906321e+03 5.623413251903490728e-01
1.934313185879705316e+03 1.000000000000000000e+00
2.153344708056119089e+03 1.778279410038922759e+00
2.429997295142523853e+03 3.162277660168379523e+00
2.716189657460567105e+03 5.623413251903491172e+00
2.984009487916612215e+03 1.000000000000000000e+01
3.249415726157236350e+03 1.778279410038922848e+01
3.521701904210463908e+03 3.162277660168379256e+01
3.807895415195774603e+03 5.623413251903490817e+01
4.115422825413600549e+03 1.000000000000000000e+02
4.448299406435493438e+03 1.778279410038922776e+02
4.822061064726149198e+03 3.162277660168379612e+02
