# Temperature (K), Pressure (bars)
9.445735619239280823e+02 3.162277660168379394e-04
9.958247086495690610e+02 5.623413251903490971e-04
1.047075856866696768e+03 1.000000000000000021e-03
1.097664792592319600e+03 1.778279410038922752e-03
1.148384837132256280e+03 3.162277660168379394e-03
1.200488446244926308e+03 5.623413251903490971e-03
1.254277140345268208e+03 1.000000000000000021e-02
1.311299050661799356e+03 1.778279410038922925e-02
1.374845904805716600e+03 3.162277660168379134e-02
1.453547841102606981e+03 5.623413251903491145e-02
1.566319133293150571e+03 1.000000000000000056e-01
1.717575517727683973e+03 1.778279410038922925e-01
1.916461957233877911e+03 3.162277660168379412e-01
2.169521243075895654e+03 5.623413251903490728e-01
2.432097479748045771e+03 1.000000000000000000e+00
2.675971459880522616e+03 1.778279410038922759e+00
2.910751409742721080e+03 3.162277660168379523e+00
3.143011170982358635e+03 5.623413251903491172e+00
3.379267536217907491e+03 1.000000000000000000e+01
3.625994369397714763e+03 1.778279410038922848e+01
3.891406823976883970e+03 3.162277660168379256e+01
4.180788334645666509e+03 5.623413251903490817e+01
4.500930904723460117e+03 1.000000000000000000e+02
4.855045326342249609e+03 1.778279410038922776e+02
5.262325844174141821e+03 3.162277660168379612e+02
