# Temperature (K), Pressure (bars)
9.606220238046518034e+02 1.000000000000000048e-04
1.017418565017585252e+03 1.778279410038922698e-04
1.074215107574908188e+03 3.162277660168379394e-04
1.129731585589348470e+03 5.623413251903490971e-04
1.185002863212296006e+03 1.000000000000000021e-03
1.242076419045793500e+03 1.778279410038922752e-03
1.302958174155630786e+03 3.162277660168379394e-03
1.370666890513239423e+03 5.623413251903490971e-03
1.448488721452758455e+03 1.000000000000000021e-02
1.541728140603772772e+03 1.778279410038922925e-02
1.660146365090406562e+03 3.162277660168379134e-02
1.837181244779464578e+03 5.623413251903491145e-02
2.078254437766369847e+03 1.000000000000000056e-01
2.321342158782077604e+03 1.778279410038922925e-01
2.536987525815872687e+03 3.162277660168379412e-01
2.739941861668335605e+03 5.623413251903490728e-01
2.937848628322448349e+03 1.000000000000000000e+00
3.136482163327092621e+03 1.778279410038922759e+00
3.340742607790761213e+03 3.162277660168379523e+00
3.555465460056596385e+03 5.623413251903491172e+00
3.785581604135563794e+03 1.000000000000000000e+01
4.036354859351733921e+03 1.778279410038922848e+01
4.315841245560642164e+03 3.162277660168379256e+01
4.629384061676257261e+03 5.623413251903490817e+01
4.985344185266400018e+03 1.000000000000000000e+02
5.387745416170357203e+03 1.778279410038922776e+02
5.863710212594546647e+03 3.162277660168379612e+02
