# Temperature (K), Pressure (bars)
9.476027593759441743e+02 1.000000000000000048e-04
1.013530351863608530e+03 1.778279410038922698e-04
1.079457945497107175e+03 3.162277660168379394e-04
1.138173704308038168e+03 5.623413251903490971e-04
1.189717529249444397e+03 1.000000000000000021e-03
1.232560183425766581e+03 1.778279410038922752e-03
1.269443911401755713e+03 3.162277660168379394e-03
1.304573491834652032e+03 5.623413251903490971e-03
1.347766913475927822e+03 1.000000000000000021e-02
1.427496982326301577e+03 1.778279410038922925e-02
1.556615096095422814e+03 3.162277660168379134e-02
1.714492740697064391e+03 5.623413251903491145e-02
1.866113973018459319e+03 1.000000000000000056e-01
1.996782545773852689e+03 1.778279410038922925e-01
2.132480161135093567e+03 3.162277660168379412e-01
2.317843689993022053e+03 5.623413251903490728e-01
2.554405657855913887e+03 1.000000000000000000e+00
2.792783859254495383e+03 1.778279410038922759e+00
3.017310672962906665e+03 3.162277660168379523e+00
3.243254113570275877e+03 5.623413251903491172e+00
3.476589832165744156e+03 1.000000000000000000e+01
3.722969135678943076e+03 1.778279410038922848e+01
3.990091313648599225e+03 3.162277660168379256e+01
4.283449212426555277e+03 5.623413251903490817e+01
4.610029494443873773e+03 1.000000000000000000e+02
4.972857636010769966e+03 1.778279410038922776e+02
5.392697294767218409e+03 3.162277660168379612e+02
