# Temperature (K), Pressure (bars)
2.336751478810851040e+03 9.999999999999999547e-07
2.345796373423630939e+03 1.778279410038922901e-06
2.354841268036410838e+03 3.162277660168379191e-06
2.381076700487551534e+03 5.623413251903491208e-06
2.416435403677022350e+03 1.000000000000000082e-05
2.455627459721898049e+03 1.778279410038922901e-05
2.499253829898127606e+03 3.162277660168379530e-05
2.544744853229266027e+03 5.623413251903490700e-05
2.590522772184292990e+03 1.000000000000000048e-04
2.634400303608334980e+03 1.778279410038922698e-04
2.672940636929629363e+03 3.162277660168379394e-04
2.704422103430256811e+03 5.623413251903490971e-04
2.732880357590297535e+03 1.000000000000000021e-03
2.767733812951399614e+03 1.778279410038922752e-03
2.817713926507363340e+03 3.162277660168379394e-03
2.882426931984178282e+03 5.623413251903490971e-03
2.956888003719251628e+03 1.000000000000000021e-02
3.031809215017080987e+03 1.778279410038922925e-02
3.125433578440493875e+03 3.162277660168379134e-02
3.274118741191922254e+03 5.623413251903491145e-02
3.469120753157681520e+03 1.000000000000000056e-01
3.682208397349931602e+03 1.778279410038922925e-01
3.945340037416211544e+03 3.162277660168379412e-01
4.258694100452232306e+03 5.623413251903490728e-01
4.693294315296822788e+03 1.000000000000000000e+00
5.384012861219071056e+03 1.778279410038922759e+00
6.519217913439326367e+03 3.162277660168379523e+00
8.059666540508354956e+03 5.623413251903491172e+00
9.775351103150285780e+03 1.000000000000000000e+01
1.000000000000000000e+04 1.778279410038922848e+01
1.000000000000000000e+04 3.162277660168379256e+01
1.000000000000000000e+04 5.623413251903490817e+01
1.000000000000000000e+04 1.000000000000000000e+02
1.000000000000000000e+04 1.778279410038922776e+02
1.000000000000000000e+04 3.162277660168379612e+02
