# Temperature (K), Pressure (bars)
2.087624030320425845e+03 9.999999999999999547e-07
2.089161672936368632e+03 1.778279410038922901e-06
2.090699315552311873e+03 3.162277660168379191e-06
2.107753167385684719e+03 5.623413251903491208e-06
2.134223896874280399e+03 1.000000000000000082e-05
2.167171592491015417e+03 1.778279410038922901e-05
2.207987895901941101e+03 3.162277660168379530e-05
2.255788946548314470e+03 5.623413251903490700e-05
2.310506818061329341e+03 1.000000000000000048e-04
2.370319424491709015e+03 1.778279410038922698e-04
2.433295001378906818e+03 3.162277660168379394e-04
2.498621305174156987e+03 5.623413251903490971e-04
2.566284814289960650e+03 1.000000000000000021e-03
2.635745806064118369e+03 1.778279410038922752e-03
2.702448555580538596e+03 3.162277660168379394e-03
2.756829749152399472e+03 5.623413251903490971e-03
2.791638449946196488e+03 1.000000000000000021e-02
2.808198121637941313e+03 1.778279410038922925e-02
2.855475025094061493e+03 3.162277660168379134e-02
2.977887749588096085e+03 5.623413251903491145e-02
3.135391888539633328e+03 1.000000000000000056e-01
3.302496021721634406e+03 1.778279410038922925e-01
3.493841055374294683e+03 3.162277660168379412e-01
3.712156577097925492e+03 5.623413251903490728e-01
3.960035955333495622e+03 1.000000000000000000e+00
4.245453792361288833e+03 1.778279410038922759e+00
4.560307609121151472e+03 3.162277660168379523e+00
4.950578438286433993e+03 5.623413251903491172e+00
5.462828636655887749e+03 1.000000000000000000e+01
6.192356171991760675e+03 1.778279410038922848e+01
7.301301614665968373e+03 3.162277660168379256e+01
8.885874674729826438e+03 5.623413251903490817e+01
1.000000000000000000e+04 1.000000000000000000e+02
1.000000000000000000e+04 1.778279410038922776e+02
1.000000000000000000e+04 3.162277660168379612e+02
