# Temperature (K), Pressure (bars)
9.144694766940659747e+02 3.162277660168379394e-04
9.683832847214085859e+02 5.623413251903490971e-04
1.022297094287288019e+03 1.000000000000000021e-03
1.074449056428770291e+03 1.778279410038922752e-03
1.126366292907226352e+03 3.162277660168379394e-03
1.179606811770051308e+03 5.623413251903490971e-03
1.236172068727434180e+03 1.000000000000000021e-02
1.299148629555621937e+03 1.778279410038922925e-02
1.374525303355812412e+03 3.162277660168379134e-02
1.467443955756087689e+03 5.623413251903491145e-02
1.598003986010344306e+03 1.000000000000000056e-01
1.801906624159844341e+03 1.778279410038922925e-01
2.062726983486571044e+03 3.162277660168379412e-01
2.324457058221124043e+03 5.623413251903490728e-01
2.567259686173842965e+03 1.000000000000000000e+00
2.797466219015932438e+03 1.778279410038922759e+00
3.021390198370922008e+03 3.162277660168379523e+00
3.245924390722386306e+03 5.623413251903491172e+00
3.477609432982833368e+03 1.000000000000000000e+01
3.722645517930572169e+03 1.778279410038922848e+01
3.989067378151312369e+03 3.162277660168379256e+01
4.281689271622678461e+03 5.623413251903490817e+01
4.607340064440325477e+03 1.000000000000000000e+02
4.969198053197414993e+03 1.778279410038922776e+02
5.387697009239251202e+03 3.162277660168379612e+02
