# Temperature (K), Pressure (bars)
9.998926332314626961e+02 3.162277660168379394e-04
1.048853789332127462e+03 5.623413251903490971e-04
1.097814947911578656e+03 1.000000000000000021e-03
1.146972600503796230e+03 1.778279410038922752e-03
1.197509046301048329e+03 3.162277660168379394e-03
1.249861655466126194e+03 5.623413251903490971e-03
1.303839590597868892e+03 1.000000000000000021e-02
1.360700590543790213e+03 1.778279410038922925e-02
1.424978974821234033e+03 3.162277660168379134e-02
1.503287919912359712e+03 5.623413251903491145e-02
1.602642804811606538e+03 1.000000000000000056e-01
1.732157976462472107e+03 1.778279410038922925e-01
1.884908741777576552e+03 3.162277660168379412e-01
2.072184242560478651e+03 5.623413251903490728e-01
2.315261391452037969e+03 1.000000000000000000e+00
2.574476805450804022e+03 1.778279410038922759e+00
2.818834989601561574e+03 3.162277660168379523e+00
3.058159053687627420e+03 5.623413251903491172e+00
3.299174675291308176e+03 1.000000000000000000e+01
3.548317542597307693e+03 1.778279410038922848e+01
3.813681813155402324e+03 3.162277660168379256e+01
4.101080226479974044e+03 5.623413251903490817e+01
4.417270876337744085e+03 1.000000000000000000e+02
4.765528122376578722e+03 1.778279410038922776e+02
5.164134369721971780e+03 3.162277660168379612e+02
