# Temperature (K), Pressure (bars)
2.253629584052216160e+03 9.999999999999999547e-07
2.278785975896630589e+03 1.778279410038922901e-06
2.303942367741045928e+03 3.162277660168379191e-06
2.331978612860516478e+03 5.623413251903491208e-06
2.360399555409492223e+03 1.000000000000000082e-05
2.388815202979534661e+03 1.778279410038922901e-05
2.418207829189456334e+03 3.162277660168379530e-05
2.446825968741813085e+03 5.623413251903490700e-05
2.470954537117526343e+03 1.000000000000000048e-04
2.486573008380265492e+03 1.778279410038922698e-04
2.494950400005347092e+03 3.162277660168379394e-04
2.504606773259506554e+03 5.623413251903490971e-04
2.524193200255993816e+03 1.000000000000000021e-03
2.556737007508167608e+03 1.778279410038922752e-03
2.602404386340600922e+03 3.162277660168379394e-03
2.659569578602169713e+03 5.623413251903490971e-03
2.728371318565718866e+03 1.000000000000000021e-02
2.803487811148816945e+03 1.778279410038922925e-02
2.893056987485546870e+03 3.162277660168379134e-02
3.018257425779843288e+03 5.623413251903491145e-02
3.168271936987542176e+03 1.000000000000000056e-01
3.333345746751791921e+03 1.778279410038922925e-01
3.522707316533203539e+03 3.162277660168379412e-01
3.740786827858769357e+03 5.623413251903490728e-01
3.992059344753643472e+03 1.000000000000000000e+00
4.285628883264611432e+03 1.778279410038922759e+00
4.613262268145338567e+03 3.162277660168379523e+00
5.025897459303030701e+03 5.623413251903491172e+00
5.581350613825647088e+03 1.000000000000000000e+01
6.397979718794439577e+03 1.778279410038922848e+01
7.645622218914820223e+03 3.162277660168379256e+01
9.349478577325375227e+03 5.623413251903490817e+01
1.140735327257814970e+04 1.000000000000000000e+02
1.388919737168194661e+04 1.778279410038922776e+02
1.685045292904872986e+04 3.162277660168379612e+02
