# Temperature (K), Pressure (bars)
8.693623411348947911e+02 5.623413251903490971e-04
9.146025056356082814e+02 1.000000000000000021e-03
9.598426711337368715e+02 1.778279410038922752e-03
1.004989091699532764e+03 3.162277660168379394e-03
1.050597831895868694e+03 5.623413251903490971e-03
1.097257599772117374e+03 1.000000000000000021e-02
1.145472455729102876e+03 1.778279410038922925e-02
1.197176506495298554e+03 3.162277660168379134e-02
1.255364788987098109e+03 5.623413251903491145e-02
1.326806068475520078e+03 1.000000000000000056e-01
1.425661101142705547e+03 1.778279410038922925e-01
1.567027592651055556e+03 3.162277660168379412e-01
1.752877660807485427e+03 5.623413251903490728e-01
1.987484841000536335e+03 1.000000000000000000e+00
2.264735435774096459e+03 1.778279410038922759e+00
2.545264808920736868e+03 3.162277660168379523e+00
2.810448216966602558e+03 5.623413251903491172e+00
3.069329032975222162e+03 1.000000000000000000e+01
3.328703513258999010e+03 1.778279410038922848e+01
3.597774606754142951e+03 3.162277660168379256e+01
3.883076500539225890e+03 5.623413251903490817e+01
4.191732348761501271e+03 1.000000000000000000e+02
4.527063745375215149e+03 1.778279410038922776e+02
4.905881727427987244e+03 3.162277660168379612e+02
