# Temperature (K), Pressure (bars)
9.627179498382161000e+02 5.623413251903490700e-05
1.014862026260586390e+03 1.000000000000000048e-04
1.067006102950527747e+03 1.778279410038922698e-04
1.112305854816341252e+03 3.162277660168379394e-04
1.149679970963573169e+03 5.623413251903490971e-04
1.181690700056270089e+03 1.000000000000000021e-03
1.211883407293265918e+03 1.778279410038922752e-03
1.241982064125132865e+03 3.162277660168379394e-03
1.271941411756774869e+03 5.623413251903490971e-03
1.301467039677117100e+03 1.000000000000000021e-02
1.329825802794493711e+03 1.778279410038922925e-02
1.374548799752794139e+03 3.162277660168379134e-02
1.458222184560287360e+03 5.623413251903491145e-02
1.567899731793861065e+03 1.000000000000000056e-01
1.703091262136320211e+03 1.778279410038922925e-01
1.864457693209302306e+03 3.162277660168379412e-01
2.061640352774926214e+03 5.623413251903490728e-01
2.321540719905842707e+03 1.000000000000000000e+00
2.592936795833700671e+03 1.778279410038922759e+00
2.838402265338177131e+03 3.162277660168379523e+00
3.076866666476286355e+03 5.623413251903491172e+00
3.316450528918603595e+03 1.000000000000000000e+01
3.564489955300054135e+03 1.778279410038922848e+01
3.829575562929306216e+03 3.162277660168379256e+01
4.117129087525230716e+03 5.623413251903490817e+01
4.433882446294277543e+03 1.000000000000000000e+02
4.782794404497675714e+03 1.778279410038922776e+02
5.182724548696118291e+03 3.162277660168379612e+02
