# Temperature (K), Pressure (bars)
7.734438358290478845e+02 3.162277660168379394e-04
8.117412477190595155e+02 5.623413251903490971e-04
8.500386603565694941e+02 1.000000000000000021e-03
8.880271070957657003e+02 1.778279410038922752e-03
9.265538425277991337e+02 3.162277660168379394e-03
9.659808068903756748e+02 5.623413251903490971e-03
1.006620281982085316e+03 1.000000000000000021e-02
1.049541132007345368e+03 1.778279410038922925e-02
1.098010036617263268e+03 3.162277660168379134e-02
1.156475161243254206e+03 5.623413251903491145e-02
1.232854043497960220e+03 1.000000000000000056e-01
1.333772756159166192e+03 1.778279410038922925e-01
1.489812634874225978e+03 3.162277660168379412e-01
1.725025844561243503e+03 5.623413251903490728e-01
1.998065641225641230e+03 1.000000000000000000e+00
2.274170881259442922e+03 1.778279410038922759e+00
2.547834001215543140e+03 3.162277660168379523e+00
2.812459081097584203e+03 5.623413251903491172e+00
3.070619070884858502e+03 1.000000000000000000e+01
3.329333407307908601e+03 1.778279410038922848e+01
3.598328108479584444e+03 3.162277660168379256e+01
3.883624162553855513e+03 5.623413251903490817e+01
4.192224193794660096e+03 1.000000000000000000e+02
4.527649114474292219e+03 1.778279410038922776e+02
4.906521327125921744e+03 3.162277660168379612e+02
