# Temperature (K), Pressure (bars)
8.686611371573334281e+02 5.623413251903490971e-04
9.038563313664859606e+02 1.000000000000000021e-03
9.390515261195686207e+02 1.778279410038922752e-03
9.739031584908282184e+02 3.162277660168379394e-03
1.010560481186256084e+03 5.623413251903490971e-03
1.048935057787384949e+03 1.000000000000000021e-02
1.088165333340025882e+03 1.778279410038922925e-02
1.129722902636646268e+03 3.162277660168379134e-02
1.175777826463488736e+03 5.623413251903491145e-02
1.231058589843813706e+03 1.000000000000000056e-01
1.297137272636031184e+03 1.778279410038922925e-01
1.380800073629036888e+03 3.162277660168379412e-01
1.525848650887393205e+03 5.623413251903490728e-01
1.755080407245281322e+03 1.000000000000000000e+00
2.027181608434671034e+03 1.778279410038922759e+00
2.309724623721387616e+03 3.162277660168379523e+00
2.593057995146046778e+03 5.623413251903491172e+00
2.870093493247899005e+03 1.000000000000000000e+01
3.143062843822949617e+03 1.778279410038922848e+01
3.420331165389796752e+03 3.162277660168379256e+01
3.708592410198593825e+03 5.623413251903490817e+01
4.015425419293703726e+03 1.000000000000000000e+02
4.344966005194263744e+03 1.778279410038922776e+02
4.712776517163822064e+03 3.162277660168379612e+02
