# Temperature (K), Pressure (bars)
1.675818286429015643e+03 9.999999999999999547e-07
1.699780161921415129e+03 1.778279410038922901e-06
1.723742037413814842e+03 3.162277660168379191e-06
1.751187369333864808e+03 5.623413251903491208e-06
1.784005619995906727e+03 1.000000000000000082e-05
1.823021695818514218e+03 1.778279410038922901e-05
1.866260862970359085e+03 3.162277660168379530e-05
1.912639599581668790e+03 5.623413251903490700e-05
1.961938525006315331e+03 1.000000000000000048e-04
2.014697725588455796e+03 1.778279410038922698e-04
2.071478433902110737e+03 3.162277660168379394e-04
2.132821638983758930e+03 5.623413251903490971e-04
2.200184686882716960e+03 1.000000000000000021e-03
2.279716051998218973e+03 1.778279410038922752e-03
2.377372600773680006e+03 3.162277660168379394e-03
2.487875464483188807e+03 5.623413251903490971e-03
2.606059627999782151e+03 1.000000000000000021e-02
2.732831006711765440e+03 1.778279410038922925e-02
2.869579780973369907e+03 3.162277660168379134e-02
3.018586222738791093e+03 5.623413251903491145e-02
3.183025815828026225e+03 1.000000000000000056e-01
3.366497104837062125e+03 1.778279410038922925e-01
3.572235873519678535e+03 3.162277660168379412e-01
3.803423643455383171e+03 5.623413251903490728e-01
4.067284457834371096e+03 1.000000000000000000e+00
4.377167688557865404e+03 1.778279410038922759e+00
4.738587654939916320e+03 3.162277660168379523e+00
5.213816357138964122e+03 5.623413251903491172e+00
5.891663974815835900e+03 1.000000000000000000e+01
6.930721506201015472e+03 1.778279410038922848e+01
8.451413466635940495e+03 3.162277660168379256e+01
1.033156363727229109e+04 5.623413251903490817e+01
1.257079845085437228e+04 1.000000000000000000e+02
1.530481563992703195e+04 1.778279410038922776e+02
1.856616224384930320e+04 3.162277660168379612e+02
