# Temperature (K), Pressure (bars)
1.277602730009064089e+03 9.999999999999999547e-07
1.297394568559263917e+03 1.778279410038922901e-06
1.317186407110641085e+03 3.162277660168379191e-06
1.341124746204167650e+03 5.623413251903491208e-06
1.370870710864051489e+03 1.000000000000000082e-05
1.407982813739395624e+03 1.778279410038922901e-05
1.453027203859405745e+03 3.162277660168379530e-05
1.505200479666686533e+03 5.623413251903490700e-05
1.566360035235756641e+03 1.000000000000000048e-04
1.639758661903780649e+03 1.778279410038922698e-04
1.719039444390470180e+03 3.162277660168379394e-04
1.798775569604464408e+03 5.623413251903490971e-04
1.881736368213657215e+03 1.000000000000000021e-03
1.973568358951829623e+03 1.778279410038922752e-03
2.086400222247621969e+03 3.162277660168379394e-03
2.222139665937308564e+03 5.623413251903490971e-03
2.365836323610584259e+03 1.000000000000000021e-02
2.510155323831570968e+03 1.778279410038922925e-02
2.657778328331985904e+03 3.162277660168379134e-02
2.810846800601259929e+03 5.623413251903491145e-02
2.971387052715397658e+03 1.000000000000000056e-01
3.141503488065837701e+03 1.778279410038922925e-01
3.323073969042163753e+03 3.162277660168379412e-01
3.517661380280718731e+03 5.623413251903490728e-01
3.727752160292441204e+03 1.000000000000000000e+00
3.958062177874632653e+03 1.778279410038922759e+00
4.215711724624476119e+03 3.162277660168379523e+00
4.510418697594686819e+03 5.623413251903491172e+00
4.853952088835271752e+03 1.000000000000000000e+01
5.270887282413525099e+03 1.778279410038922848e+01
5.795744155519886590e+03 3.162277660168379256e+01
6.488906337789954705e+03 5.623413251903490817e+01
7.454399524918771931e+03 1.000000000000000000e+02
8.843641405686999860e+03 1.778279410038922776e+02
1.067324113775727892e+04 3.162277660168379612e+02
