# Temperature (K), Pressure (bars)
1.066453518010202288e+03 1.778279410038922901e-05
1.125073704003215198e+03 3.162277660168379530e-05
1.183693895544754241e+03 5.623413251903490700e-05
1.250596594498187642e+03 1.000000000000000048e-04
1.313724904103602512e+03 1.778279410038922698e-04
1.368862917353548937e+03 3.162277660168379394e-04
1.419982767556147792e+03 5.623413251903490971e-04
1.479032708161817482e+03 1.000000000000000021e-03
1.561778825944297523e+03 1.778279410038922752e-03
1.645381794464602763e+03 3.162277660168379394e-03
1.710086792363083532e+03 5.623413251903490971e-03
1.768839644137450705e+03 1.000000000000000021e-02
1.831698052414259109e+03 1.778279410038922925e-02
1.899765921431749121e+03 3.162277660168379134e-02
1.978942066910521135e+03 5.623413251903491145e-02
2.072388216586703493e+03 1.000000000000000056e-01
2.194619996220328176e+03 1.778279410038922925e-01
2.371016050457154506e+03 3.162277660168379412e-01
2.579447503367107856e+03 5.623413251903490728e-01
2.787040833570432824e+03 1.000000000000000000e+00
2.993579189773447069e+03 1.778279410038922759e+00
3.204340979896434419e+03 3.162277660168379523e+00
3.423040538023336012e+03 5.623413251903491172e+00
3.653900871116192320e+03 1.000000000000000000e+01
3.902156473591906433e+03 1.778279410038922848e+01
4.175378410604659621e+03 3.162277660168379256e+01
4.479332693252936224e+03 5.623413251903490817e+01
4.821751618599739231e+03 1.000000000000000000e+02
5.206183933126508236e+03 1.778279410038922776e+02
5.656737748164083314e+03 3.162277660168379612e+02
