# Temperature (K), Pressure (bars)
1.917951347157115379e+03 9.999999999999999547e-07
1.944761169023297953e+03 1.778279410038922901e-06
1.971570990893459111e+03 3.162277660168379191e-06
2.006867141377416829e+03 5.623413251903491208e-06
2.050450937762714602e+03 1.000000000000000082e-05
2.096581919351661782e+03 1.778279410038922901e-05
2.141679510234437657e+03 3.162277660168379530e-05
2.183803503816781358e+03 5.623413251903490700e-05
2.221524231214159954e+03 1.000000000000000048e-04
2.255176046631874669e+03 1.778279410038922698e-04
2.286118502440197517e+03 3.162277660168379394e-04
2.315924696445137670e+03 5.623413251903490971e-04
2.346015096966057172e+03 1.000000000000000021e-03
2.378758560874186060e+03 1.778279410038922752e-03
2.415557008552242678e+03 3.162277660168379394e-03
2.460500834471783492e+03 5.623413251903490971e-03
2.512494838961591995e+03 1.000000000000000021e-02
2.584212144589469062e+03 1.778279410038922925e-02
2.697014575343344404e+03 3.162277660168379134e-02
2.832766592416258845e+03 5.623413251903491145e-02
2.976852361029730218e+03 1.000000000000000056e-01
3.137334987522995107e+03 1.778279410038922925e-01
3.315718472683635355e+03 3.162277660168379412e-01
3.511603479628572131e+03 5.623413251903490728e-01
3.725125499548855259e+03 1.000000000000000000e+00
3.959397531605022778e+03 1.778279410038922759e+00
4.220983347523986595e+03 3.162277660168379523e+00
4.519762599537172719e+03 5.623413251903491172e+00
4.866268709472044065e+03 1.000000000000000000e+01
5.287395449015783015e+03 1.778279410038922848e+01
5.819285753558689066e+03 3.162277660168379256e+01
6.527063206779729626e+03 5.623413251903490817e+01
7.526789651401710216e+03 1.000000000000000000e+02
8.963062704565903914e+03 1.778279410038922776e+02
1.082811671906461561e+04 3.162277660168379612e+02
