# Temperature (K), Pressure (bars)
2.061955155481449310e+03 9.999999999999999547e-07
2.081929241377059498e+03 1.778279410038922901e-06
2.101903327272669230e+03 3.162277660168379191e-06
2.128867485236008633e+03 5.623413251903491208e-06
2.162882317755043459e+03 1.000000000000000082e-05
2.201759166449880468e+03 1.778279410038922901e-05
2.244437880122720344e+03 3.162277660168379530e-05
2.290099080843422598e+03 5.623413251903490700e-05
2.337186278395614409e+03 1.000000000000000048e-04
2.383089127644760538e+03 1.778279410038922698e-04
2.426558382451918078e+03 3.162277660168379394e-04
2.467864620413367902e+03 5.623413251903490971e-04
2.507195203000685069e+03 1.000000000000000021e-03
2.545999630708988661e+03 1.778279410038922752e-03
2.587245385040379006e+03 3.162277660168379394e-03
2.632266098575612432e+03 5.623413251903490971e-03
2.679601853480556656e+03 1.000000000000000021e-02
2.726872285354583710e+03 1.778279410038922925e-02
2.799558125173254666e+03 3.162277660168379134e-02
2.923057894354273230e+03 5.623413251903491145e-02
3.073741608469139464e+03 1.000000000000000056e-01
3.237203941645740542e+03 1.778279410038922925e-01
3.422254569370989884e+03 3.162277660168379412e-01
3.629739698043134467e+03 5.623413251903490728e-01
3.860741960547118651e+03 1.000000000000000000e+00
4.119990945161028321e+03 1.778279410038922759e+00
4.417591555154201160e+03 3.162277660168379523e+00
4.758204511823730172e+03 5.623413251903491172e+00
5.180671881639171261e+03 1.000000000000000000e+01
5.732992673474862386e+03 1.778279410038922848e+01
6.509137111624147110e+03 3.162277660168379256e+01
7.664930535040778523e+03 5.623413251903490817e+01
9.298813651204653070e+03 1.000000000000000000e+02
1.000000000000000000e+04 1.778279410038922776e+02
1.000000000000000000e+04 3.162277660168379612e+02
