# Temperature (K), Pressure (bars)
1.572462625299802994e+03 3.162277660168379530e-05
1.593934054904657842e+03 5.623413251903490700e-05
1.615405488053779209e+03 1.000000000000000048e-04
1.642113612982162067e+03 1.778279410038922698e-04
1.674278961630685671e+03 3.162277660168379394e-04
1.712529297082468929e+03 5.623413251903490971e-04
1.753732596300151499e+03 1.000000000000000021e-03
1.796011301804904178e+03 1.778279410038922752e-03
1.838516656014774071e+03 3.162277660168379394e-03
1.880155321492061830e+03 5.623413251903490971e-03
1.922635031234267444e+03 1.000000000000000021e-02
1.967012816780693583e+03 1.778279410038922925e-02
2.013711798604191927e+03 3.162277660168379134e-02
2.065313820700595898e+03 5.623413251903491145e-02
2.123982913792261115e+03 1.000000000000000056e-01
2.195668628151711800e+03 1.778279410038922925e-01
2.282777275574146188e+03 3.162277660168379412e-01
2.405005748160582698e+03 5.623413251903490728e-01
2.589750991570079805e+03 1.000000000000000000e+00
2.807807256121700448e+03 1.778279410038922759e+00
3.026993462202340652e+03 3.162277660168379523e+00
3.250929011219468521e+03 5.623413251903491172e+00
3.484275938793972728e+03 1.000000000000000000e+01
3.731487544873438765e+03 1.778279410038922848e+01
3.999005350469067253e+03 3.162277660168379256e+01
4.292889832867295809e+03 5.623413251903490817e+01
4.620228928697307310e+03 1.000000000000000000e+02
4.984194610402047147e+03 1.778279410038922776e+02
5.405814973799029758e+03 3.162277660168379612e+02
