# Temperature (K), Pressure (bars)
9.059404611603255262e+02 3.162277660168379394e-03
9.471334961050986294e+02 5.623413251903490971e-03
9.883265326396099226e+02 1.000000000000000021e-02
1.029648272007530522e+03 1.778279410038922925e-02
1.070977917275473828e+03 3.162277660168379134e-02
1.112579134528504255e+03 5.623413251903491145e-02
1.155966612883025164e+03 1.000000000000000056e-01
1.203776275641800794e+03 1.778279410038922925e-01
1.259297659789835279e+03 3.162277660168379412e-01
1.326039434356582660e+03 5.623413251903490728e-01
1.411405390361044510e+03 1.000000000000000000e+00
1.534483342837024338e+03 1.778279410038922759e+00
1.699061567975393473e+03 3.162277660168379523e+00
1.915630422890544651e+03 5.623413251903491172e+00
2.200653783399236545e+03 1.000000000000000000e+01
2.514008714264884929e+03 1.778279410038922848e+01
2.827895274016181247e+03 3.162277660168379256e+01
3.143786745560609234e+03 5.623413251903490817e+01
3.464595935775106227e+03 1.000000000000000000e+02
3.794801581358921339e+03 1.778279410038922776e+02
4.147584123876956255e+03 3.162277660168379612e+02
