# Temperature (K), Pressure (bars)
8.148209657082264812e+02 3.162277660168379530e-05
8.720187140249400954e+02 5.623413251903490700e-05
9.292164652152413282e+02 1.000000000000000048e-04
9.862407900357776498e+02 1.778279410038922698e-04
1.042701791330872766e+03 3.162277660168379394e-04
1.099657133395524397e+03 5.623413251903490971e-04
1.155942802256761752e+03 1.000000000000000021e-03
1.208550107425381384e+03 1.778279410038922752e-03
1.256571365682592386e+03 3.162277660168379394e-03
1.297771426669418815e+03 5.623413251903490971e-03
1.333981613835132748e+03 1.000000000000000021e-02
1.373065732795581880e+03 1.778279410038922925e-02
1.414948525208196770e+03 3.162277660168379134e-02
1.473887169933133464e+03 5.623413251903491145e-02
1.582773516537945852e+03 1.000000000000000056e-01
1.743183008958922528e+03 1.778279410038922925e-01
1.918060556318658882e+03 3.162277660168379412e-01
2.118411854296099591e+03 5.623413251903490728e-01
2.374902322693424139e+03 1.000000000000000000e+00
2.638219240500486194e+03 1.778279410038922759e+00
2.878057034790068428e+03 3.162277660168379523e+00
3.113446875851747336e+03 5.623413251903491172e+00
3.351871621609428530e+03 1.000000000000000000e+01
3.599768669381098789e+03 1.778279410038922848e+01
3.865246491467286432e+03 3.162277660168379256e+01
4.153990885241126307e+03 5.623413251903490817e+01
4.472789709426278023e+03 1.000000000000000000e+02
4.824809247605191558e+03 1.778279410038922776e+02
5.228753209035407963e+03 3.162277660168379612e+02
