# Temperature (K), Pressure (bars)
9.411760769703985261e+02 3.162277660168379394e-03
9.792623491876237267e+02 5.623413251903490971e-03
1.017348621877492064e+03 1.000000000000000021e-02
1.054903109293957641e+03 1.778279410038922925e-02
1.092912784733731314e+03 3.162277660168379134e-02
1.132801025210414082e+03 5.623413251903491145e-02
1.177002610707034137e+03 1.000000000000000056e-01
1.229165794483221362e+03 1.778279410038922925e-01
1.293265398098498054e+03 3.162277660168379412e-01
1.373013582931079327e+03 5.623413251903490728e-01
1.483935284067950761e+03 1.000000000000000000e+00
1.639518358651813514e+03 1.778279410038922759e+00
1.854133210717371185e+03 3.162277660168379523e+00
2.133664198184793804e+03 5.623413251903491172e+00
2.437774367940960929e+03 1.000000000000000000e+01
2.738452337280190477e+03 1.778279410038922848e+01
3.041763669652797489e+03 3.162277660168379256e+01
3.346801673586496690e+03 5.623413251903490817e+01
3.660309443426183861e+03 1.000000000000000000e+02
3.987901387298645204e+03 1.778279410038922776e+02
4.343404818914525094e+03 3.162277660168379612e+02
