# Temperature (K), Pressure (bars)
2.384965167397727782e+03 9.999999999999999547e-07
2.389470252534636074e+03 1.778279410038922901e-06
2.393975337671545276e+03 3.162277660168379191e-06
2.419615990405593493e+03 5.623413251903491208e-06
2.454058945886813945e+03 1.000000000000000082e-05
2.486116057374921184e+03 1.778279410038922901e-05
2.520510422407047827e+03 3.162277660168379530e-05
2.558392569084121533e+03 5.623413251903490700e-05
2.599941798393586396e+03 1.000000000000000048e-04
2.647156609243538242e+03 1.778279410038922698e-04
2.699424240197400650e+03 3.162277660168379394e-04
2.755407118508787789e+03 5.623413251903490971e-04
2.813065284193290154e+03 1.000000000000000021e-03
2.869209586585785019e+03 1.778279410038922752e-03
2.920423658240861187e+03 3.162277660168379394e-03
2.965926792882095469e+03 5.623413251903490971e-03
3.008458392824457405e+03 1.000000000000000021e-02
3.057656928322352996e+03 1.778279410038922925e-02
3.114616790375368510e+03 3.162277660168379134e-02
3.186737606104734368e+03 5.623413251903491145e-02
3.305551105629032918e+03 1.000000000000000056e-01
3.474825981309547842e+03 1.778279410038922925e-01
3.671431777277548463e+03 3.162277660168379412e-01
3.901845110089844184e+03 5.623413251903490728e-01
4.178181118132433767e+03 1.000000000000000000e+00
4.501761719833788447e+03 1.778279410038922759e+00
4.921266245858892944e+03 3.162277660168379523e+00
5.515977070412203830e+03 5.623413251903491172e+00
6.445950732525572676e+03 1.000000000000000000e+01
7.849003743552415472e+03 1.778279410038922848e+01
9.621775279507290179e+03 3.162277660168379256e+01
1.000000000000000000e+04 5.623413251903490817e+01
1.000000000000000000e+04 1.000000000000000000e+02
1.000000000000000000e+04 1.778279410038922776e+02
1.000000000000000000e+04 3.162277660168379612e+02
