# Temperature (K), Pressure (bars)
1.988385506435401567e+03 9.999999999999999547e-07
2.002255818280735866e+03 1.778279410038922901e-06
2.016126130126156568e+03 3.162277660168379191e-06
2.036702087561626286e+03 5.623413251903491208e-06
2.064094360541199876e+03 1.000000000000000082e-05
2.095704727556173566e+03 1.778279410038922901e-05
2.129243250901409738e+03 3.162277660168379530e-05
2.162769116840419883e+03 5.623413251903490700e-05
2.194951676605335706e+03 1.000000000000000048e-04
2.226317092559541834e+03 1.778279410038922698e-04
2.259165451427551488e+03 3.162277660168379394e-04
2.296073280248794617e+03 5.623413251903490971e-04
2.338689542026124400e+03 1.000000000000000021e-03
2.388839584627259683e+03 1.778279410038922752e-03
2.447666967846805164e+03 3.162277660168379394e-03
2.519700222039179607e+03 5.623413251903490971e-03
2.612663312320809382e+03 1.000000000000000021e-02
2.724127622978185173e+03 1.778279410038922925e-02
2.847819146380822531e+03 3.162277660168379134e-02
2.983843409162093849e+03 5.623413251903491145e-02
3.134839974643018650e+03 1.000000000000000056e-01
3.304222236172846351e+03 1.778279410038922925e-01
3.495324080408841382e+03 3.162277660168379412e-01
3.710784457472310805e+03 5.623413251903490728e-01
3.954068337341752795e+03 1.000000000000000000e+00
4.233210932709756889e+03 1.778279410038922759e+00
4.544296691822156390e+03 3.162277660168379523e+00
4.927837639311072053e+03 5.623413251903491172e+00
5.425997878397291970e+03 1.000000000000000000e+01
6.119749635141787621e+03 1.778279410038922848e+01
7.159857776592463779e+03 3.162277660168379256e+01
8.680230529013100750e+03 5.623413251903490817e+01
1.059966242038546079e+04 1.000000000000000000e+02
1.290517682834836160e+04 1.778279410038922776e+02
1.565456410741430045e+04 3.162277660168379612e+02
