# Temperature (K), Pressure (bars)
8.356610605952457718e+02 5.623413251903490971e-04
8.799105368336485071e+02 1.000000000000000021e-03
9.241600140559771717e+02 1.778279410038922752e-03
9.671621176292120481e+02 3.162277660168379394e-03
1.010483016527383143e+03 5.623413251903490971e-03
1.054596795601957183e+03 1.000000000000000021e-02
1.100182795294670768e+03 1.778279410038922925e-02
1.149637326183339610e+03 3.162277660168379134e-02
1.207581807569928287e+03 5.623413251903491145e-02
1.278709838673888271e+03 1.000000000000000056e-01
1.376722446092927612e+03 1.778279410038922925e-01
1.526883713206062112e+03 3.162277660168379412e-01
1.742590984678146697e+03 5.623413251903490728e-01
2.007309736058960880e+03 1.000000000000000000e+00
2.285546734606690734e+03 1.778279410038922759e+00
2.557503380124994692e+03 3.162277660168379523e+00
2.821214775465303319e+03 5.623413251903491172e+00
3.078892168694533211e+03 1.000000000000000000e+01
3.337352305049317692e+03 1.778279410038922848e+01
3.606237685058058560e+03 3.162277660168379256e+01
3.891652526594403753e+03 5.623413251903490817e+01
4.200635907705925092e+03 1.000000000000000000e+02
4.536850878649020160e+03 1.778279410038922776e+02
4.916619449253676976e+03 3.162277660168379612e+02
