# Temperature (K), Pressure (bars)
1.913368449550489913e+03 9.999999999999999547e-07
1.931187230386582996e+03 1.778279410038922901e-06
1.949006011223934365e+03 3.162277660168379191e-06
1.974864633461821313e+03 5.623413251903491208e-06
2.011508487290795301e+03 1.000000000000000082e-05
2.055599026040396893e+03 1.778279410038922901e-05
2.101723825849690911e+03 3.162277660168379530e-05
2.146309464193374879e+03 5.623413251903490700e-05
2.187148483182630116e+03 1.000000000000000048e-04
2.223169601460713238e+03 1.778279410038922698e-04
2.255176650695913850e+03 3.162277660168379394e-04
2.284859094432118582e+03 5.623413251903490971e-04
2.314037462407136445e+03 1.000000000000000021e-03
2.344235116477238080e+03 1.778279410038922752e-03
2.377843064521171073e+03 3.162277660168379394e-03
2.416387000196945337e+03 5.623413251903490971e-03
2.464133129916089274e+03 1.000000000000000021e-02
2.520573830221278968e+03 1.778279410038922925e-02
2.599461369224498867e+03 3.162277660168379134e-02
2.721255381281378504e+03 5.623413251903491145e-02
2.864918285917690355e+03 1.000000000000000056e-01
3.014990105982269142e+03 1.778279410038922925e-01
3.180016130006032654e+03 3.162277660168379412e-01
3.361504655728431317e+03 5.623413251903490728e-01
3.559506436545985707e+03 1.000000000000000000e+00
3.774821478477290839e+03 1.778279410038922759e+00
4.010769661404392536e+03 3.162277660168379523e+00
4.273367287038386166e+03 5.623413251903491172e+00
4.571140566663274512e+03 1.000000000000000000e+01
4.915895854620164755e+03 1.778279410038922848e+01
5.325655243375051214e+03 3.162277660168379256e+01
5.825474864525744124e+03 5.623413251903490817e+01
6.456027357993360965e+03 1.000000000000000000e+02
7.286278922296860401e+03 1.778279410038922776e+02
8.430020225918306096e+03 3.162277660168379612e+02
