# Temperature (K), Pressure (bars)
2.321465660726923943e+03 9.999999999999999547e-07
2.327613778990185438e+03 1.778279410038922901e-06
2.333761897253446932e+03 3.162277660168379191e-06
2.363044520623283006e+03 5.623413251903491208e-06
2.395471062440164587e+03 1.000000000000000082e-05
2.426275159312863252e+03 1.778279410038922901e-05
2.462590521413061197e+03 3.162277660168379530e-05
2.501446929061446099e+03 5.623413251903490700e-05
2.541469105518523520e+03 1.000000000000000048e-04
2.581567050311487037e+03 1.778279410038922698e-04
2.619026572891383239e+03 3.162277660168379394e-04
2.649583991328541742e+03 5.623413251903490971e-04
2.673035326807033471e+03 1.000000000000000021e-03
2.697592473090435305e+03 1.778279410038922752e-03
2.734322001110262136e+03 3.162277660168379394e-03
2.786088627831673875e+03 5.623413251903490971e-03
2.849728463623112930e+03 1.000000000000000021e-02
2.911377363693352891e+03 1.778279410038922925e-02
2.981256290816469118e+03 3.162277660168379134e-02
3.097254414975515829e+03 5.623413251903491145e-02
3.251675943628499681e+03 1.000000000000000056e-01
3.429008582856306930e+03 1.778279410038922925e-01
3.621889955704003114e+03 3.162277660168379412e-01
3.844663964908235812e+03 5.623413251903490728e-01
4.104561593229606842e+03 1.000000000000000000e+00
4.401481000844184564e+03 1.778279410038922759e+00
4.771903895140701934e+03 3.162277660168379523e+00
5.265614937878322053e+03 5.623413251903491172e+00
5.989408477378471616e+03 1.000000000000000000e+01
7.118827396802039402e+03 1.778279410038922848e+01
8.714407608697376418e+03 3.162277660168379256e+01
1.000000000000000000e+04 5.623413251903490817e+01
1.000000000000000000e+04 1.000000000000000000e+02
1.000000000000000000e+04 1.778279410038922776e+02
1.000000000000000000e+04 3.162277660168379612e+02
