# Temperature (K), Pressure (bars)
9.609705405287604663e+02 1.000000000000000048e-04
1.007971349678498768e+03 1.778279410038922698e-04
1.054972160615089706e+03 3.162277660168379394e-04
1.103832707998334172e+03 5.623413251903490971e-04
1.154393883472621155e+03 1.000000000000000021e-03
1.206859078006938716e+03 1.778279410038922752e-03
1.261336453726344644e+03 3.162277660168379394e-03
1.319124764776668144e+03 5.623413251903490971e-03
1.382685677775528802e+03 1.000000000000000021e-02
1.459738812619171995e+03 1.778279410038922925e-02
1.570715073763250302e+03 3.162277660168379134e-02
1.752101266216444401e+03 5.623413251903491145e-02
2.000043547977797289e+03 1.000000000000000056e-01
2.250969969940092597e+03 1.778279410038922925e-01
2.475711325066224163e+03 3.162277660168379412e-01
2.685989666084351938e+03 5.623413251903490728e-01
2.889202461249656608e+03 1.000000000000000000e+00
3.091391602560569936e+03 1.778279410038922759e+00
3.297723259106621754e+03 3.162277660168379523e+00
3.513355325433796224e+03 5.623413251903491172e+00
3.743452190533881094e+03 1.000000000000000000e+01
3.993354992634183873e+03 1.778279410038922848e+01
4.271151963823731421e+03 3.162277660168379256e+01
4.582023343151689915e+03 5.623413251903490817e+01
4.934127417508821054e+03 1.000000000000000000e+02
5.331585111747393057e+03 1.778279410038922776e+02
5.799637304453283832e+03 3.162277660168379612e+02
