# Temperature (K), Pressure (bars)
9.199245065593866002e+02 1.000000000000000048e-04
9.769297615539362596e+02 1.778279410038922698e-04
1.033935017751701480e+03 3.162277660168379394e-04
1.088856635880940985e+03 5.623413251903490971e-04
1.143611945338623855e+03 1.000000000000000021e-03
1.200872182236895242e+03 1.778279410038922752e-03
1.262935086877105505e+03 3.162277660168379394e-03
1.333456114452003931e+03 5.623413251903490971e-03
1.416007231652754172e+03 1.000000000000000021e-02
1.518172846056152821e+03 1.778279410038922925e-02
1.661004696013435705e+03 3.162277660168379134e-02
1.862950348453598963e+03 5.623413251903491145e-02
2.103023225762741731e+03 1.000000000000000056e-01
2.338329599778722695e+03 1.778279410038922925e-01
2.553640771391947965e+03 3.162277660168379412e-01
2.756014917716785931e+03 5.623413251903490728e-01
2.952804962393097412e+03 1.000000000000000000e+00
3.150107273125197025e+03 1.778279410038922759e+00
3.353257857690760375e+03 3.162277660168379523e+00
3.567322304778211219e+03 5.623413251903491172e+00
3.797232692519857665e+03 1.000000000000000000e+01
4.048221078504157049e+03 1.778279410038922848e+01
4.328441584776920536e+03 3.162277660168379256e+01
4.643041218190689506e+03 5.623413251903490817e+01
5.000528864684000837e+03 1.000000000000000000e+02
5.404918262777566270e+03 1.778279410038922776e+02
5.883721690271886473e+03 3.162277660168379612e+02
