# Temperature (K), Pressure (bars)
9.496897546373585328e+02 3.162277660168379394e-04
9.934065344022841373e+02 5.623413251903490971e-04
1.037123313137463811e+03 1.000000000000000021e-03
1.076954019918460745e+03 1.778279410038922752e-03
1.112943715310700327e+03 3.162277660168379394e-03
1.146744987220998382e+03 5.623413251903490971e-03
1.182128726542703134e+03 1.000000000000000021e-02
1.223749600550716195e+03 1.778279410038922925e-02
1.272290311145580290e+03 3.162277660168379134e-02
1.325726452677836278e+03 5.623413251903491145e-02
1.385238169675255676e+03 1.000000000000000056e-01
1.449803092652675787e+03 1.778279410038922925e-01
1.518811622718961416e+03 3.162277660168379412e-01
1.601891763109146041e+03 5.623413251903490728e-01
1.741904279229731401e+03 1.000000000000000000e+00
1.973780373376817352e+03 1.778279410038922759e+00
2.256119874467591217e+03 3.162277660168379523e+00
2.542092790476372556e+03 5.623413251903491172e+00
2.823343989641798998e+03 1.000000000000000000e+01
3.099965390814661077e+03 1.778279410038922848e+01
3.379641964614823337e+03 3.162277660168379256e+01
3.669032634086957387e+03 5.623413251903490817e+01
3.975926601621991722e+03 1.000000000000000000e+02
4.304589049498381428e+03 1.778279410038922776e+02
4.670286960427424674e+03 3.162277660168379612e+02
