# Temperature (K), Pressure (bars)
2.276522305572830192e+03 9.999999999999999547e-07
2.291364919731649479e+03 1.778279410038922901e-06
2.306207533890469222e+03 3.162277660168379191e-06
2.331166735145382972e+03 5.623413251903491208e-06
2.362459627508570975e+03 1.000000000000000082e-05
2.396858230122706573e+03 1.778279410038922901e-05
2.435220280331297545e+03 3.162277660168379530e-05
2.478867301011919153e+03 5.623413251903490700e-05
2.527631280337094722e+03 1.000000000000000048e-04
2.581003106894424491e+03 1.778279410038922698e-04
2.639131507617705665e+03 3.162277660168379394e-04
2.700274285950627473e+03 5.623413251903490971e-04
2.762393385910579127e+03 1.000000000000000021e-03
2.823272251761577991e+03 1.778279410038922752e-03
2.878614443434200894e+03 3.162277660168379394e-03
2.925121498589789098e+03 5.623413251903490971e-03
2.963088578338180014e+03 1.000000000000000021e-02
3.001804999371952817e+03 1.778279410038922925e-02
3.048486845790238476e+03 3.162277660168379134e-02
3.118385234210668841e+03 5.623413251903491145e-02
3.237479323689543889e+03 1.000000000000000056e-01
3.398500464171802832e+03 1.778279410038922925e-01
3.586663794951494765e+03 3.162277660168379412e-01
3.806987007727265791e+03 5.623413251903490728e-01
4.068252908726802161e+03 1.000000000000000000e+00
4.369763300361736583e+03 1.778279410038922759e+00
4.727516030050877816e+03 3.162277660168379523e+00
5.194064544092730102e+03 5.623413251903491172e+00
5.852131192518357238e+03 1.000000000000000000e+01
6.854479545849640090e+03 1.778279410038922848e+01
8.337054176833129532e+03 3.162277660168379256e+01
1.000000000000000000e+04 5.623413251903490817e+01
1.000000000000000000e+04 1.000000000000000000e+02
1.000000000000000000e+04 1.778279410038922776e+02
1.000000000000000000e+04 3.162277660168379612e+02
