# Temperature (K), Pressure (bars)
1.822233487893005986e+03 9.999999999999999547e-07
1.841436221490367416e+03 1.778279410038922901e-06
1.860638955087728618e+03 3.162277660168379191e-06
1.884937024192205854e+03 5.623413251903491208e-06
1.916383137659172007e+03 1.000000000000000082e-05
1.951838983039030381e+03 1.778279410038922901e-05
1.989086513380510496e+03 3.162277660168379530e-05
2.027995133013589339e+03 5.623413251903490700e-05
2.066425662296183873e+03 1.000000000000000048e-04
2.103780478993622637e+03 1.778279410038922698e-04
2.142070354651579237e+03 3.162277660168379394e-04
2.183230432606964314e+03 5.623413251903490971e-04
2.228446150004233459e+03 1.000000000000000021e-03
2.280233762613231193e+03 1.778279410038922752e-03
2.339851427085790419e+03 3.162277660168379394e-03
2.413090621646891577e+03 5.623413251903490971e-03
2.509609972220655436e+03 1.000000000000000021e-02
2.624277800024457520e+03 1.778279410038922925e-02
2.748981631210697742e+03 3.162277660168379134e-02
2.884334944874914527e+03 5.623413251903491145e-02
3.032186485872975936e+03 1.000000000000000056e-01
3.195011551530951238e+03 1.778279410038922925e-01
3.375207212830184744e+03 3.162277660168379412e-01
3.574326885292044153e+03 5.623413251903490728e-01
3.793944012874040709e+03 1.000000000000000000e+00
4.037987034827071966e+03 1.778279410038922759e+00
4.314325114945490895e+03 3.162277660168379523e+00
4.635516164779557585e+03 5.623413251903491172e+00
5.014533011764035109e+03 1.000000000000000000e+01
5.488992549130947737e+03 1.778279410038922848e+01
6.113612485419178483e+03 3.162277660168379256e+01
6.991141524178570762e+03 5.623413251903490817e+01
8.279867424856449361e+03 1.000000000000000000e+02
1.000000000000000000e+04 1.778279410038922776e+02
1.000000000000000000e+04 3.162277660168379612e+02
