# Temperature (K), Pressure (bars)
8.908386011087141014e+02 1.778279410038922901e-05
9.534802100149864827e+02 3.162277660168379530e-05
1.016121819395249645e+03 5.623413251903490700e-05
1.065149062265597422e+03 1.000000000000000048e-04
1.104101596783095147e+03 1.778279410038922698e-04
1.140271094545357755e+03 3.162277660168379394e-04
1.198651939711754721e+03 5.623413251903490971e-04
1.299772537096062706e+03 1.000000000000000021e-03
1.429150462458502261e+03 1.778279410038922752e-03
1.570255172565000066e+03 3.162277660168379394e-03
1.683122744675381909e+03 5.623413251903490971e-03
1.756089961589307450e+03 1.000000000000000021e-02
1.829159574517424517e+03 1.778279410038922925e-02
1.907862024178296451e+03 3.162277660168379134e-02
1.994467700604420770e+03 5.623413251903491145e-02
2.094271744927308646e+03 1.000000000000000056e-01
2.232409454445717984e+03 1.778279410038922925e-01
2.439053476701655200e+03 3.162277660168379412e-01
2.660784490704452764e+03 5.623413251903490728e-01
2.864058833092499299e+03 1.000000000000000000e+00
3.067599782268718627e+03 1.778279410038922759e+00
3.275916986182980509e+03 3.162277660168379523e+00
3.492957364261127168e+03 5.623413251903491172e+00
3.723692141283429919e+03 1.000000000000000000e+01
3.973590530693612891e+03 1.778279410038922848e+01
4.250437740494267018e+03 3.162277660168379256e+01
4.559868412275269293e+03 5.623413251903490817e+01
4.910007835852393328e+03 1.000000000000000000e+02
5.304413521483647855e+03 1.778279410038922776e+02
5.769202232914057277e+03 3.162277660168379612e+02
