# Temperature (K), Pressure (bars)
2.217331616318607757e+03 9.999999999999999547e-07
2.226728403964090830e+03 1.778279410038922901e-06
2.236125191609572994e+03 3.162277660168379191e-06
2.266033077641321597e+03 5.623413251903491208e-06
2.305605244480788770e+03 1.000000000000000082e-05
2.348029309864376955e+03 1.778279410038922901e-05
2.395704992216559276e+03 3.162277660168379530e-05
2.447520065279589744e+03 5.623413251903490700e-05
2.501382156990592648e+03 1.000000000000000048e-04
2.554918189616667860e+03 1.778279410038922698e-04
2.606908233740327887e+03 3.162277660168379394e-04
2.656148328378398219e+03 5.623413251903490971e-04
2.700936917178706608e+03 1.000000000000000021e-03
2.740999386209928161e+03 1.778279410038922752e-03
2.779984483167222152e+03 3.162277660168379394e-03
2.823185043327585845e+03 5.623413251903490971e-03
2.877966962211711234e+03 1.000000000000000021e-02
2.943111965185490135e+03 1.778279410038922925e-02
3.026180635161475493e+03 3.162277660168379134e-02
3.150563638022095347e+03 5.623413251903491145e-02
3.311583629976739758e+03 1.000000000000000056e-01
3.497876016965009057e+03 1.778279410038922925e-01
3.704835364479874897e+03 3.162277660168379412e-01
3.948256046063809208e+03 5.623413251903490728e-01
4.233676430106782391e+03 1.000000000000000000e+00
4.579365714487111291e+03 1.778279410038922759e+00
5.040481047202678383e+03 3.162277660168379523e+00
5.716161278770653553e+03 5.623413251903491172e+00
6.777448948550189016e+03 1.000000000000000000e+01
8.313056905131361418e+03 1.778279410038922848e+01
1.000000000000000000e+04 3.162277660168379256e+01
1.000000000000000000e+04 5.623413251903490817e+01
1.000000000000000000e+04 1.000000000000000000e+02
1.000000000000000000e+04 1.778279410038922776e+02
1.000000000000000000e+04 3.162277660168379612e+02
