# Temperature (K), Pressure (bars)
2.360155882973750977e+03 9.999999999999999547e-07
2.375046543475731141e+03 1.778279410038922901e-06
2.389937203977711761e+03 3.162277660168379191e-06
2.418929456097872389e+03 5.623413251903491208e-06
2.453921046049211782e+03 1.000000000000000082e-05
2.491157455349122301e+03 1.778279410038922901e-05
2.531983154833339995e+03 3.162277660168379530e-05
2.574759349656053018e+03 5.623413251903490700e-05
2.618731315785630613e+03 1.000000000000000048e-04
2.662015114148396151e+03 1.778279410038922698e-04
2.702085891901972445e+03 3.162277660168379394e-04
2.737553044340227643e+03 5.623413251903490971e-04
2.769128434850520080e+03 1.000000000000000021e-03
2.800178165453765359e+03 1.778279410038922752e-03
2.835912010047263266e+03 3.162277660168379394e-03
2.881409254731510373e+03 5.623413251903490971e-03
2.940824734356002864e+03 1.000000000000000021e-02
3.016344227859392959e+03 1.778279410038922925e-02
3.110682023191392091e+03 3.162277660168379134e-02
3.234361144854292888e+03 5.623413251903491145e-02
3.395534378406570340e+03 1.000000000000000056e-01
3.588342604099565506e+03 1.778279410038922925e-01
3.813295848592445964e+03 3.162277660168379412e-01
4.081904894475792389e+03 5.623413251903490728e-01
4.410149729732678679e+03 1.000000000000000000e+00
4.856075950093938445e+03 1.778279410038922759e+00
5.530550972318920685e+03 3.162277660168379523e+00
6.608005198864610975e+03 5.623413251903491172e+00
8.141695850094281013e+03 1.000000000000000000e+01
9.912502027575987086e+03 1.778279410038922848e+01
1.000000000000000000e+04 3.162277660168379256e+01
1.000000000000000000e+04 5.623413251903490817e+01
1.000000000000000000e+04 1.000000000000000000e+02
1.000000000000000000e+04 1.778279410038922776e+02
1.000000000000000000e+04 3.162277660168379612e+02
