# Temperature (K), Pressure (bars)
9.611092327758174179e+02 5.623413251903491208e-06
1.012144204033666369e+03 1.000000000000000082e-05
1.063179176843139658e+03 1.778279410038922901e-05
1.113566013958773055e+03 3.162277660168379530e-05
1.162971705396046218e+03 5.623413251903490700e-05
1.213692321638310204e+03 1.000000000000000048e-04
1.268566543747776905e+03 1.778279410038922698e-04
1.337904409850606498e+03 3.162277660168379394e-04
1.422183582148034702e+03 5.623413251903490971e-04
1.510982968127712866e+03 1.000000000000000021e-03
1.606164310897484484e+03 1.778279410038922752e-03
1.699215378207302365e+03 3.162277660168379394e-03
1.782610698100822674e+03 5.623413251903490971e-03
1.871266398533661004e+03 1.000000000000000021e-02
1.973986809038148976e+03 1.778279410038922925e-02
2.110790006119041664e+03 3.162277660168379134e-02
2.293323935634065037e+03 5.623413251903491145e-02
2.482456978632505070e+03 1.000000000000000056e-01
2.659059857235196887e+03 1.778279410038922925e-01
2.835882879837815381e+03 3.162277660168379412e-01
3.016688931620124094e+03 5.623413251903490728e-01
3.203302825300220775e+03 1.000000000000000000e+00
3.397866817371090747e+03 1.778279410038922759e+00
3.604043468527770528e+03 3.162277660168379523e+00
3.826462040000427351e+03 5.623413251903491172e+00
4.070229194829808421e+03 1.000000000000000000e+01
4.341196079061189266e+03 1.778279410038922848e+01
4.646560889621262504e+03 3.162277660168379256e+01
4.996085828648856477e+03 5.623413251903490817e+01
5.407232167361589745e+03 1.000000000000000000e+02
5.893352170539063081e+03 1.778279410038922776e+02
6.480065354987418687e+03 3.162277660168379612e+02
