# Temperature (K), Pressure (bars)
1.026179980810033840e+03 3.162277660168379394e-04
1.064324331478616159e+03 5.623413251903490971e-04
1.102468682117015078e+03 1.000000000000000021e-03
1.138773342986939497e+03 1.778279410038922752e-03
1.173729414319865555e+03 3.162277660168379394e-03
1.209422540317432322e+03 5.623413251903490971e-03
1.241989691773730328e+03 1.000000000000000021e-02
1.269082332801256825e+03 1.778279410038922925e-02
1.295274477586793864e+03 3.162277660168379134e-02
1.324991284857453138e+03 5.623413251903491145e-02
1.358929104476447492e+03 1.000000000000000056e-01
1.401853039899227042e+03 1.778279410038922925e-01
1.467194118091304290e+03 3.162277660168379412e-01
1.556128744506935163e+03 5.623413251903490728e-01
1.673489182247849158e+03 1.000000000000000000e+00
1.817021441578893928e+03 1.778279410038922759e+00
2.010644103067787910e+03 3.162277660168379523e+00
2.292195866568200472e+03 5.623413251903491172e+00
2.603230590396094613e+03 1.000000000000000000e+01
2.896950048859085200e+03 1.778279410038922848e+01
3.189907369362383179e+03 3.162277660168379256e+01
3.487119970351866868e+03 5.623413251903490817e+01
3.796548671906879918e+03 1.000000000000000000e+02
4.123497553391189285e+03 1.778279410038922776e+02
4.482195299560554304e+03 3.162277660168379612e+02
