# Temperature (K), Pressure (bars)
1.998701755369958391e+03 9.999999999999999547e-07
2.026922783328817331e+03 1.778279410038922901e-06
2.055143811288703091e+03 3.162277660168379191e-06
2.089468048674107195e+03 5.623413251903491208e-06
2.129176492917724772e+03 1.000000000000000082e-05
2.172428041542254050e+03 1.778279410038922901e-05
2.216230054817295240e+03 3.162277660168379530e-05
2.257701711086552223e+03 5.623413251903490700e-05
2.296166752602102861e+03 1.000000000000000048e-04
2.331474919874768602e+03 1.778279410038922698e-04
2.363969079614924340e+03 3.162277660168379394e-04
2.395126566270154399e+03 5.623413251903490971e-04
2.427096804879985484e+03 1.000000000000000021e-03
2.462546122739856401e+03 1.778279410038922752e-03
2.502869035196946243e+03 3.162277660168379394e-03
2.551021377866738476e+03 5.623413251903490971e-03
2.603510676201723982e+03 1.000000000000000021e-02
2.668822295526536891e+03 1.778279410038922925e-02
2.770802343421335536e+03 3.162277660168379134e-02
2.901897021284898074e+03 5.623413251903491145e-02
3.048315854762708113e+03 1.000000000000000056e-01
3.213658457719201579e+03 1.778279410038922925e-01
3.399141566523680922e+03 3.162277660168379412e-01
3.604569238076691818e+03 5.623413251903490728e-01
3.830922558886086790e+03 1.000000000000000000e+00
4.082990038492486292e+03 1.778279410038922759e+00
4.370035154455457814e+03 3.162277660168379523e+00
4.697068086661144662e+03 5.623413251903491172e+00
5.096689129875378057e+03 1.000000000000000000e+01
5.607068915257250410e+03 1.778279410038922848e+01
6.300418725644386541e+03 3.162277660168379256e+01
7.310562692490361769e+03 5.623413251903490817e+01
8.781695843025758222e+03 1.000000000000000000e+02
1.068191529966239978e+04 1.778279410038922776e+02
1.295887934391237286e+04 3.162277660168379612e+02
