# Temperature (K), Pressure (bars)
2.336756990497609422e+03 9.999999999999999547e-07
2.345692565297042165e+03 1.778279410038922901e-06
2.354628140096474453e+03 3.162277660168379191e-06
2.376352148030277021e+03 5.623413251903491208e-06
2.405929061297039880e+03 1.000000000000000082e-05
2.436643001442019795e+03 1.778279410038922901e-05
2.469655164442265232e+03 3.162277660168379530e-05
2.504632799833825175e+03 5.623413251903490700e-05
2.540081749306395523e+03 1.000000000000000048e-04
2.575651128683626212e+03 1.778279410038922698e-04
2.610393813021551068e+03 3.162277660168379394e-04
2.641648221360505431e+03 5.623413251903490971e-04
2.666179869250916909e+03 1.000000000000000021e-03
2.685041566567904283e+03 1.778279410038922752e-03
2.704772824718230822e+03 3.162277660168379394e-03
2.733941927175006185e+03 5.623413251903490971e-03
2.775397254899400195e+03 1.000000000000000021e-02
2.831103537886172035e+03 1.778279410038922925e-02
2.892485045992698360e+03 3.162277660168379134e-02
2.970826567155007524e+03 5.623413251903491145e-02
3.098294066421170101e+03 1.000000000000000056e-01
3.257055990893044509e+03 1.778279410038922925e-01
3.428769938482065754e+03 3.162277660168379412e-01
3.624518863673947180e+03 5.623413251903490728e-01
3.848924473132628009e+03 1.000000000000000000e+00
4.106232965533342394e+03 1.778279410038922759e+00
4.404070706926783714e+03 3.162277660168379523e+00
4.740868313310175836e+03 5.623413251903491172e+00
5.157156862401713624e+03 1.000000000000000000e+01
5.698730354302447267e+03 1.778279410038922848e+01
6.455184484227577741e+03 3.162277660168379256e+01
7.576087835153505694e+03 5.623413251903490817e+01
9.173096531046137898e+03 1.000000000000000000e+02
1.000000000000000000e+04 1.778279410038922776e+02
1.000000000000000000e+04 3.162277660168379612e+02
