# Temperature (K), Pressure (bars)
9.998397505984789859e+02 3.162277660168379394e-03
1.045916562688574231e+03 5.623413251903490971e-03
1.091993375293362078e+03 1.000000000000000021e-02
1.134357989192043533e+03 1.778279410038922925e-02
1.173495425212016244e+03 3.162277660168379134e-02
1.212881623671446050e+03 5.623413251903491145e-02
1.254646898694222727e+03 1.000000000000000056e-01
1.299353037583803825e+03 1.778279410038922925e-01
1.349971975621950378e+03 3.162277660168379412e-01
1.416217337827477650e+03 5.623413251903490728e-01
1.502858129025647941e+03 1.000000000000000000e+00
1.617618894277390154e+03 1.778279410038922759e+00
1.765288352976478336e+03 3.162277660168379523e+00
1.967077873350603568e+03 5.623413251903491172e+00
2.248036833533215031e+03 1.000000000000000000e+01
2.562303507581108988e+03 1.778279410038922848e+01
2.874417206182712107e+03 3.162277660168379256e+01
3.187930495413224435e+03 5.623413251903490817e+01
3.506824372200564994e+03 1.000000000000000000e+02
3.835841890717789738e+03 1.778279410038922776e+02
4.188640377805341814e+03 3.162277660168379612e+02
