# Temperature (K), Pressure (bars)
9.334214711550049515e+02 3.162277660168379394e-04
9.858791746446037223e+02 5.623413251903490971e-04
1.038336879988551345e+03 1.000000000000000021e-03
1.089752181738179843e+03 1.778279410038922752e-03
1.140985172917645059e+03 3.162277660168379394e-03
1.193260516161671148e+03 5.623413251903490971e-03
1.247191410075956583e+03 1.000000000000000021e-02
1.304154218909553492e+03 1.778279410038922925e-02
1.368375422515206083e+03 3.162277660168379134e-02
1.448086075415118557e+03 5.623413251903491145e-02
1.555480602164892844e+03 1.000000000000000056e-01
1.699543451846088828e+03 1.778279410038922925e-01
1.874025532596787571e+03 3.162277660168379412e-01
2.089904182819401740e+03 5.623413251903490728e-01
2.351606977992842531e+03 1.000000000000000000e+00
2.613260515152473545e+03 1.778279410038922759e+00
2.854790697987981275e+03 3.162277660168379523e+00
3.091319777632489149e+03 5.623413251903491172e+00
3.330210953765770682e+03 1.000000000000000000e+01
3.578125400881034238e+03 1.778279410038922848e+01
3.843317269691028741e+03 3.162277660168379256e+01
4.131277339942277649e+03 5.623413251903490817e+01
4.448770054881238138e+03 1.000000000000000000e+02
4.798777183943637283e+03 1.778279410038922776e+02
5.200396984695389619e+03 3.162277660168379612e+02
