# Temperature (K), Pressure (bars)
1.159556864807560487e+03 3.162277660168379191e-06
1.195528599070007886e+03 5.623413251903491208e-06
1.231500341598114346e+03 1.000000000000000082e-05
1.291948132126227620e+03 1.778279410038922901e-05
1.387402049970143707e+03 3.162277660168379530e-05
1.530950711625685244e+03 5.623413251903490700e-05
1.670703406374564111e+03 1.000000000000000048e-04
1.766209234452301644e+03 1.778279410038922698e-04
1.836405340510692440e+03 3.162277660168379394e-04
1.892370551745148305e+03 5.623413251903490971e-04
1.937339035374110153e+03 1.000000000000000021e-03
1.976510537319597688e+03 1.778279410038922752e-03
2.013399662469616487e+03 3.162277660168379394e-03
2.050525673202785129e+03 5.623413251903490971e-03
2.089884510342153590e+03 1.000000000000000021e-02
2.134829854096502459e+03 1.778279410038922925e-02
2.187330884236078873e+03 3.162277660168379134e-02
2.252788551242248559e+03 5.623413251903491145e-02
2.332172216024935096e+03 1.000000000000000056e-01
2.442977432185773068e+03 1.778279410038922925e-01
2.607367415091526709e+03 3.162277660168379412e-01
2.795009430293876903e+03 5.623413251903490728e-01
2.982056958581189519e+03 1.000000000000000000e+00
3.176812786496163426e+03 1.778279410038922759e+00
3.382191848292205123e+03 3.162277660168379523e+00
3.600497821575754642e+03 5.623413251903491172e+00
3.835139530653075781e+03 1.000000000000000000e+01
4.091089657253562109e+03 1.778279410038922848e+01
4.375995368230525855e+03 3.162277660168379256e+01
4.696695007237446589e+03 5.623413251903490817e+01
5.062179911764620556e+03 1.000000000000000000e+02
5.476617768854554924e+03 1.778279410038922776e+02
5.968848987302691967e+03 3.162277660168379612e+02
