# Temperature (K), Pressure (bars)
9.810858189228025594e+02 1.000000000000000048e-04
1.028529041095194771e+03 1.778279410038922698e-04
1.075972265601959862e+03 3.162277660168379394e-04
1.125031254983288363e+03 5.623413251903490971e-04
1.175385533882259779e+03 1.000000000000000021e-03
1.227875455436643279e+03 1.778279410038922752e-03
1.282583222600915406e+03 3.162277660168379394e-03
1.339692111031902414e+03 5.623413251903490971e-03
1.402091198937951958e+03 1.000000000000000021e-02
1.475848034746923304e+03 1.778279410038922925e-02
1.566563709339611705e+03 3.162277660168379134e-02
1.682507180906165104e+03 5.623413251903491145e-02
1.820658289831084630e+03 1.000000000000000056e-01
1.991707411609683277e+03 1.778279410038922925e-01
2.215038075672761352e+03 3.162277660168379412e-01
2.454279007822390213e+03 5.623413251903490728e-01
2.678314573653503430e+03 1.000000000000000000e+00
2.895073091882317840e+03 1.778279410038922759e+00
3.111040742037262589e+03 3.162277660168379523e+00
3.331655058884895880e+03 5.623413251903491172e+00
3.562163740341899484e+03 1.000000000000000000e+01
3.808140256609860444e+03 1.778279410038922848e+01
4.077423154117506783e+03 3.162277660168379256e+01
4.375153266985396840e+03 5.623413251903490817e+01
4.708585232941642971e+03 1.000000000000000000e+02
5.081350712182756070e+03 1.778279410038922776e+02
5.515052234928166399e+03 3.162277660168379612e+02
