# Temperature (K), Pressure (bars)
9.508622420792175944e+02 1.000000000000000021e-03
9.818725345666518933e+02 1.778279410038922752e-03
1.012882826831481225e+03 3.162277660168379394e-03
1.036931168823178950e+03 5.623413251903490971e-03
1.056036421573543066e+03 1.000000000000000021e-02
1.076290832318896264e+03 1.778279410038922925e-02
1.102011123696050163e+03 3.162277660168379134e-02
1.134968986497226979e+03 5.623413251903491145e-02
1.176021753183982582e+03 1.000000000000000056e-01
1.226696117835137784e+03 1.778279410038922925e-01
1.290209004412494778e+03 3.162277660168379412e-01
1.370763438268132859e+03 5.623413251903490728e-01
1.477092994870926759e+03 1.000000000000000000e+00
1.611795440720934494e+03 1.778279410038922759e+00
1.791917384512759782e+03 3.162277660168379523e+00
2.042343250491606341e+03 5.623413251903491172e+00
2.336832104213737693e+03 1.000000000000000000e+01
2.640572120663855912e+03 1.778279410038922848e+01
2.946885553943976447e+03 3.162277660168379256e+01
3.254268955155393542e+03 5.623413251903490817e+01
3.568037524483183006e+03 1.000000000000000000e+02
3.890922569544408361e+03 1.778279410038922776e+02
4.240492622151507021e+03 3.162277660168379612e+02
