# Temperature (K), Pressure (bars)
1.022529872162813831e+03 9.999999999999999547e-07
1.031222037321228981e+03 1.778279410038922901e-06
1.039914202486565046e+03 3.162277660168379191e-06
1.054164193868855364e+03 5.623413251903491208e-06
1.075036942072744750e+03 1.000000000000000082e-05
1.102646397330394848e+03 1.778279410038922901e-05
1.135351532249029788e+03 3.162277660168379530e-05
1.172042587994577389e+03 5.623413251903490700e-05
1.213543280896673423e+03 1.000000000000000048e-04
1.259455929393835959e+03 1.778279410038922698e-04
1.309971883861314382e+03 3.162277660168379394e-04
1.366463502804273958e+03 5.623413251903490971e-04
1.432516117738806770e+03 1.000000000000000021e-03
1.506312654687798840e+03 1.778279410038922752e-03
1.589600705138441072e+03 3.162277660168379394e-03
1.689888122139150255e+03 5.623413251903490971e-03
1.801138682524876458e+03 1.000000000000000021e-02
1.910948363934330246e+03 1.778279410038922925e-02
2.046470644190217172e+03 3.162277660168379134e-02
2.235413377850531560e+03 5.623413251903491145e-02
2.434499758176267278e+03 1.000000000000000056e-01
2.616468378875323197e+03 1.778279410038922925e-01
2.795675007775993436e+03 3.162277660168379412e-01
2.977084696301606527e+03 5.623413251903490728e-01
3.163676595269522750e+03 1.000000000000000000e+00
3.357915488454183105e+03 1.778279410038922759e+00
3.563137101520987926e+03 3.162277660168379523e+00
3.783733187251567870e+03 5.623413251903491172e+00
4.024676909266536768e+03 1.000000000000000000e+01
4.291632721323966507e+03 1.778279410038922848e+01
4.591497889435469915e+03 3.162277660168379256e+01
4.933492350014391377e+03 5.623413251903490817e+01
5.334217713766369343e+03 1.000000000000000000e+02
5.805745006794264555e+03 1.778279410038922776e+02
6.370802278441531598e+03 3.162277660168379612e+02
