# Temperature (K), Pressure (bars)
9.238205841376692433e+02 1.000000000000000021e-03
9.648312437912594532e+02 1.778279410038922752e-03
1.005841903744238039e+03 3.162277660168379394e-03
1.045491912246686525e+03 5.623413251903490971e-03
1.086099430840719833e+03 1.000000000000000021e-02
1.128545750941465712e+03 1.778279410038922925e-02
1.173203057069483975e+03 3.162277660168379134e-02
1.220751943905697317e+03 5.623413251903491145e-02
1.273393940296863093e+03 1.000000000000000056e-01
1.332996769341839808e+03 1.778279410038922925e-01
1.408038678119103452e+03 3.162277660168379412e-01
1.534210875968152550e+03 5.623413251903490728e-01
1.718966898404566564e+03 1.000000000000000000e+00
1.948717907254928832e+03 1.778279410038922759e+00
2.228504989254741758e+03 3.162277660168379523e+00
2.523746620551382875e+03 5.623413251903491172e+00
2.806450856891013245e+03 1.000000000000000000e+01
3.084636908939162822e+03 1.778279410038922848e+01
3.365467524019599296e+03 3.162277660168379256e+01
3.655509546686640078e+03 5.623413251903490817e+01
3.962637468772407829e+03 1.000000000000000000e+02
4.291532276312784234e+03 1.778279410038922776e+02
4.656898925318338115e+03 3.162277660168379612e+02
