# Temperature (K), Pressure (bars)
8.559082220269224308e+02 3.162277660168379394e-04
9.014713757356668111e+02 5.623413251903490971e-04
9.470345305265508387e+02 1.000000000000000021e-03
9.921645688864446129e+02 1.778279410038922752e-03
1.038096976982033766e+03 3.162277660168379394e-03
1.085496973458958109e+03 5.623413251903490971e-03
1.134458162109803652e+03 1.000000000000000021e-02
1.186282335921440335e+03 1.778279410038922925e-02
1.243214303776820998e+03 3.162277660168379134e-02
1.312174286442376570e+03 5.623413251903491145e-02
1.407582580619361579e+03 1.000000000000000056e-01
1.541325083692220460e+03 1.778279410038922925e-01
1.711322051863260640e+03 3.162277660168379412e-01
1.928659721243159083e+03 5.623413251903490728e-01
2.196524390649827637e+03 1.000000000000000000e+00
2.470930245545382604e+03 1.778279410038922759e+00
2.727467194737592763e+03 3.162277660168379523e+00
2.975337969231308762e+03 5.623413251903491172e+00
3.221139798307332512e+03 1.000000000000000000e+01
3.472393691424933877e+03 1.778279410038922848e+01
3.738212987618980605e+03 3.162277660168379256e+01
4.024156361353505417e+03 5.623413251903490817e+01
4.337018856071982555e+03 1.000000000000000000e+02
4.679898524893368631e+03 1.778279410038922776e+02
5.070716302425946196e+03 3.162277660168379612e+02
