# Temperature (K), Pressure (bars)
8.815664265228759859e+02 9.999999999999999547e-07
9.489451196989723485e+02 1.778279410038922901e-06
1.016323812875097701e+03 3.162277660168379191e-06
1.095499225729976160e+03 5.623413251903491208e-06
1.196698937232868502e+03 1.000000000000000082e-05
1.340286210859451330e+03 1.778279410038922901e-05
1.515181186413855812e+03 3.162277660168379530e-05
1.660645156675981980e+03 5.623413251903490700e-05
1.748815744163205181e+03 1.000000000000000048e-04
1.807458661578741612e+03 1.778279410038922698e-04
1.857915309107776920e+03 3.162277660168379394e-04
1.904871509814437331e+03 5.623413251903490971e-04
1.952639798996528498e+03 1.000000000000000021e-03
2.004117914513038386e+03 1.778279410038922752e-03
2.062400091084522046e+03 3.162277660168379394e-03
2.129845218391971230e+03 5.623413251903490971e-03
2.214034493493761602e+03 1.000000000000000021e-02
2.327050685062590674e+03 1.778279410038922925e-02
2.463387251554678187e+03 3.162277660168379134e-02
2.608762194179146718e+03 5.623413251903491145e-02
2.760410245412424956e+03 1.000000000000000056e-01
2.920933117939021940e+03 1.778279410038922925e-01
3.092041426501191381e+03 3.162277660168379412e-01
3.274053050386023642e+03 5.623413251903490728e-01
3.467121133570944949e+03 1.000000000000000000e+00
3.673273657011085561e+03 1.778279410038922759e+00
3.896776253492572323e+03 3.162277660168379523e+00
4.143326625910838629e+03 5.623413251903491172e+00
4.419896317323837138e+03 1.000000000000000000e+01
4.735597304041708412e+03 1.778279410038922848e+01
5.105027446703293208e+03 3.162277660168379256e+01
5.543707570859706721e+03 5.623413251903490817e+01
6.076281635765265492e+03 1.000000000000000000e+02
6.740149066266868431e+03 1.778279410038922776e+02
7.595438494583496322e+03 3.162277660168379612e+02
