# Temperature (K), Pressure (bars)
1.028129415615161179e+03 3.162277660168379394e-04
1.070664633313969944e+03 5.623413251903490971e-04
1.113199853239694448e+03 1.000000000000000021e-03
1.155775389797000116e+03 1.778279410038922752e-03
1.200139673150360068e+03 3.162277660168379394e-03
1.247676007843145271e+03 5.623413251903490971e-03
1.299440126671683629e+03 1.000000000000000021e-02
1.357743121821502200e+03 1.778279410038922925e-02
1.423890408694366442e+03 3.162277660168379134e-02
1.496734675423275803e+03 5.623413251903491145e-02
1.582994647713575205e+03 1.000000000000000056e-01
1.686266759259749733e+03 1.778279410038922925e-01
1.804388133883001501e+03 3.162277660168379412e-01
1.935733842454133310e+03 5.623413251903490728e-01
2.106738925523395665e+03 1.000000000000000000e+00
2.347339116893486334e+03 1.778279410038922759e+00
2.615649705987787911e+03 3.162277660168379523e+00
2.873404253839048124e+03 5.623413251903491172e+00
3.127424586991311116e+03 1.000000000000000000e+01
3.384148180999987744e+03 1.778279410038922848e+01
3.651938765561500986e+03 3.162277660168379256e+01
3.937408437147299992e+03 5.623413251903490817e+01
4.247561446024303223e+03 1.000000000000000000e+02
4.585983233895228295e+03 1.778279410038922776e+02
4.969390022658693852e+03 3.162277660168379612e+02
