# Temperature (K), Pressure (bars)
8.778656743217246685e+02 1.000000000000000021e-03
9.133507756678941405e+02 1.778279410038922752e-03
9.488358772776591650e+02 3.162277660168379394e-03
9.843668026332640011e+02 5.623413251903490971e-03
1.021507684346070278e+03 1.000000000000000021e-02
1.059981881598303062e+03 1.778279410038922925e-02
1.099653552002761671e+03 3.162277660168379134e-02
1.142478442536614693e+03 5.623413251903491145e-02
1.191346642736787999e+03 1.000000000000000056e-01
1.250693629516620831e+03 1.778279410038922925e-01
1.323915835113232788e+03 3.162277660168379412e-01
1.417848223197261632e+03 5.623413251903490728e-01
1.575447467620409725e+03 1.000000000000000000e+00
1.820478400593676497e+03 1.778279410038922759e+00
2.104583476651364435e+03 3.162277660168379523e+00
2.393793637783236591e+03 5.623413251903491172e+00
2.684408366404277785e+03 1.000000000000000000e+01
2.971250307304535454e+03 1.778279410038922848e+01
3.259141659333610278e+03 3.162277660168379256e+01
3.553196202378138423e+03 5.623413251903490817e+01
3.861423958632190079e+03 1.000000000000000000e+02
4.188986671021929396e+03 1.778279410038922776e+02
4.550098504572571983e+03 3.162277660168379612e+02
