# Temperature (K), Pressure (bars)
1.978194367622441177e+03 9.999999999999999547e-07
1.981177653707654599e+03 1.778279410038922901e-06
1.984160939796234743e+03 3.162277660168379191e-06
1.992624660835619579e+03 5.623413251903491208e-06
2.011045948538776884e+03 1.000000000000000082e-05
2.039747597785762309e+03 1.778279410038922901e-05
2.076636268194924014e+03 3.162277660168379530e-05
2.120275872329808408e+03 5.623413251903490700e-05
2.168851925745106200e+03 1.000000000000000048e-04
2.218559987910321070e+03 1.778279410038922698e-04
2.266891733458414819e+03 3.162277660168379394e-04
2.313458087373251601e+03 5.623413251903490971e-04
2.356836320995002097e+03 1.000000000000000021e-03
2.396440215857833664e+03 1.778279410038922752e-03
2.432639622427456743e+03 3.162277660168379394e-03
2.470674052994485464e+03 5.623413251903490971e-03
2.511866578924827991e+03 1.000000000000000021e-02
2.571702550726863137e+03 1.778279410038922925e-02
2.674904093950073730e+03 3.162277660168379134e-02
2.804496123523140341e+03 5.623413251903491145e-02
2.942664964595142010e+03 1.000000000000000056e-01
3.095468760876312899e+03 1.778279410038922925e-01
3.265825294319988643e+03 3.162277660168379412e-01
3.454777813952388897e+03 5.623413251903490728e-01
3.662168993762576974e+03 1.000000000000000000e+00
3.889371421710634422e+03 1.778279410038922759e+00
4.141057678528701217e+03 3.162277660168379523e+00
4.425313570151654858e+03 5.623413251903491172e+00
4.753911728271649736e+03 1.000000000000000000e+01
5.142144177738453436e+03 1.778279410038922848e+01
5.619928752759746203e+03 3.162277660168379256e+01
6.233136907973695088e+03 5.623413251903490817e+01
7.062917103734109332e+03 1.000000000000000000e+02
8.236975715294878682e+03 1.778279410038922776e+02
9.876514504409336951e+03 3.162277660168379612e+02
