# Temperature (K), Pressure (bars)
1.938538357539168828e+03 9.999999999999999547e-07
1.948028313908937889e+03 1.778279410038922901e-06
1.957518270278708314e+03 3.162277660168379191e-06
1.971466613963183590e+03 5.623413251903491208e-06
1.993096225180787769e+03 1.000000000000000082e-05
2.022191740218323048e+03 1.778279410038922901e-05
2.056392341147517982e+03 3.162277660168379530e-05
2.093646516514425457e+03 5.623413251903490700e-05
2.133303129256527427e+03 1.000000000000000048e-04
2.175528112909346873e+03 1.778279410038922698e-04
2.220775490028071545e+03 3.162277660168379394e-04
2.270159893934713637e+03 5.623413251903490971e-04
2.325827485991103003e+03 1.000000000000000021e-03
2.388815040809081438e+03 1.778279410038922752e-03
2.465235888818037893e+03 3.162277660168379394e-03
2.562285334764439995e+03 5.623413251903490971e-03
2.674279005942823460e+03 1.000000000000000021e-02
2.796066768912688531e+03 1.778279410038922925e-02
2.929500164703033533e+03 3.162277660168379134e-02
3.076334493923427999e+03 5.623413251903491145e-02
3.239536894598438266e+03 1.000000000000000056e-01
3.423542000863670182e+03 1.778279410038922925e-01
3.634024111083142088e+03 3.162277660168379412e-01
3.877881265433446060e+03 5.623413251903490728e-01
4.167822703987030764e+03 1.000000000000000000e+00
4.487109282712345703e+03 1.778279410038922759e+00
4.898185296052037302e+03 3.162277660168379523e+00
5.472206338080594833e+03 5.623413251903491172e+00
6.336926093847971060e+03 1.000000000000000000e+01
7.658154736631120613e+03 1.778279410038922848e+01
9.396227808173323865e+03 3.162277660168379256e+01
1.143427639175210970e+04 5.623413251903490817e+01
1.391153625076237404e+04 1.000000000000000000e+02
1.693522534633897158e+04 1.778279410038922776e+02
2.054245669007573815e+04 3.162277660168379612e+02
