# Temperature (K), Pressure (bars)
9.610179204976906249e+02 5.623413251903490700e-05
1.004567143219567470e+03 1.000000000000000048e-04
1.048116365784651862e+03 1.778279410038922698e-04
1.090556039432738544e+03 3.162277660168379394e-04
1.134607353253046540e+03 5.623413251903490971e-04
1.181931102534319734e+03 1.000000000000000021e-03
1.232931376815337671e+03 1.778279410038922752e-03
1.287138891628920646e+03 3.162277660168379394e-03
1.346017317775932042e+03 5.623413251903490971e-03
1.414236672245714544e+03 1.000000000000000021e-02
1.505363268546785321e+03 1.778279410038922925e-02
1.638327016867378006e+03 3.162277660168379134e-02
1.823413363525739669e+03 5.623413251903491145e-02
2.049160847599248427e+03 1.000000000000000056e-01
2.280689646877724499e+03 1.778279410038922925e-01
2.497170538438430867e+03 3.162277660168379412e-01
2.702275590295078018e+03 5.623413251903490728e-01
2.902708729212596154e+03 1.000000000000000000e+00
3.103902223176056395e+03 1.778279410038922759e+00
3.310241415700941161e+03 3.162277660168379523e+00
3.526263210344322943e+03 5.623413251903491172e+00
3.756940487227526773e+03 1.000000000000000000e+01
4.007646824540963735e+03 1.778279410038922848e+01
4.286340204818734492e+03 3.162277660168379256e+01
4.598543262762035738e+03 5.623413251903490817e+01
4.952535927512774833e+03 1.000000000000000000e+02
5.352203100073862515e+03 1.778279410038922776e+02
5.823914094359422052e+03 3.162277660168379612e+02
