# Temperature (K), Pressure (bars)
9.241854721150968999e+02 9.999999999999999547e-07
9.475928097102705578e+02 1.778279410038922901e-06
9.710001473311141353e+02 3.162277660168379191e-06
9.982388410173605280e+02 5.623413251903491208e-06
1.029369915593924361e+03 1.000000000000000082e-05
1.064004337314488112e+03 1.778279410038922901e-05
1.102765425407793828e+03 3.162277660168379530e-05
1.145211158033870106e+03 5.623413251903490700e-05
1.191504449878173546e+03 1.000000000000000048e-04
1.242114631634996613e+03 1.778279410038922698e-04
1.296624244388846364e+03 3.162277660168379394e-04
1.355978063525539937e+03 5.623413251903490971e-04
1.423850420230186046e+03 1.000000000000000021e-03
1.503166407946550862e+03 1.778279410038922752e-03
1.600691705815772593e+03 3.162277660168379394e-03
1.719663129812235638e+03 5.623413251903490971e-03
1.859396735089703270e+03 1.000000000000000021e-02
2.029528627228638925e+03 1.778279410038922925e-02
2.221338985398308068e+03 3.162277660168379134e-02
2.409830675371129928e+03 5.623413251903491145e-02
2.588980966933216678e+03 1.000000000000000056e-01
2.764399381969324622e+03 1.778279410038922925e-01
2.940387562928571242e+03 3.162277660168379412e-01
3.119811245373517977e+03 5.623413251903490728e-01
3.305241528432183259e+03 1.000000000000000000e+00
3.500172880601516226e+03 1.778279410038922759e+00
3.709031459728411392e+03 3.162277660168379523e+00
3.936653471026943862e+03 5.623413251903491172e+00
4.188415385808523752e+03 1.000000000000000000e+01
4.470812248703785372e+03 1.778279410038922848e+01
4.792492524357978255e+03 3.162277660168379256e+01
5.168740116441383179e+03 5.623413251903490817e+01
5.611693830822949167e+03 1.000000000000000000e+02
6.143514368525799910e+03 1.778279410038922776e+02
6.796849744070303132e+03 3.162277660168379612e+02
