# Temperature (K), Pressure (bars)
1.524451597969436762e+03 9.999999999999999547e-07
1.570722808019036620e+03 1.778279410038922901e-06
1.616994018263920225e+03 3.162277660168379191e-06
1.666181399191206765e+03 5.623413251903491208e-06
1.738306425065144595e+03 1.000000000000000082e-05
1.814473970507755666e+03 1.778279410038922901e-05
1.874482030702405609e+03 3.162277660168379530e-05
1.925260387869117721e+03 5.623413251903490700e-05
1.969571458697860635e+03 1.000000000000000048e-04
2.008565465968682929e+03 1.778279410038922698e-04
2.044687602374434391e+03 3.162277660168379394e-04
2.078416474238411411e+03 5.623413251903490971e-04
2.111557225314864809e+03 1.000000000000000021e-03
2.145954539263137121e+03 1.778279410038922752e-03
2.183668355145887290e+03 3.162277660168379394e-03
2.225917542137192868e+03 5.623413251903490971e-03
2.277714514424726985e+03 1.000000000000000021e-02
2.338793495178083504e+03 1.778279410038922925e-02
2.425736023956209920e+03 3.162277660168379134e-02
2.560528531237287098e+03 5.623413251903491145e-02
2.715236142670183654e+03 1.000000000000000056e-01
2.871126665029659307e+03 1.778279410038922925e-01
3.038470402514340549e+03 3.162277660168379412e-01
3.218036543394868204e+03 5.623413251903490728e-01
3.409099785372747647e+03 1.000000000000000000e+00
3.612573029762951592e+03 1.778279410038922759e+00
3.831874147787779293e+03 3.162277660168379523e+00
4.072218975547160881e+03 5.623413251903491172e+00
4.339962460340908365e+03 1.000000000000000000e+01
4.643139414023093195e+03 1.778279410038922848e+01
4.992660465456637212e+03 3.162277660168379256e+01
5.406793457754604788e+03 5.623413251903490817e+01
5.904643971876777869e+03 1.000000000000000000e+02
6.519050393927700497e+03 1.778279410038922776e+02
7.302965326101923893e+03 3.162277660168379612e+02
