# Temperature (K), Pressure (bars)
1.638917572765626574e+03 9.999999999999999547e-07
1.664677057385494209e+03 1.778279410038922901e-06
1.690436542005362071e+03 3.162277660168379191e-06
1.722844350463288492e+03 5.623413251903491208e-06
1.761688855521612595e+03 1.000000000000000082e-05
1.807453229456191821e+03 1.778279410038922901e-05
1.859422285054001804e+03 3.162277660168379530e-05
1.916100379374155409e+03 5.623413251903490700e-05
1.976972441478250175e+03 1.000000000000000048e-04
2.042548261029008472e+03 1.778279410038922698e-04
2.113530509232799886e+03 3.162277660168379394e-04
2.192688791880390909e+03 5.623413251903490971e-04
2.284934941097518276e+03 1.000000000000000021e-03
2.389341834178442241e+03 1.778279410038922752e-03
2.501758047949348565e+03 3.162277660168379394e-03
2.621216524800154730e+03 5.623413251903490971e-03
2.749001720254897464e+03 1.000000000000000021e-02
2.887478870251204171e+03 1.778279410038922925e-02
3.040116365785637754e+03 3.162277660168379134e-02
3.213632796116507961e+03 5.623413251903491145e-02
3.398021747151215095e+03 1.000000000000000056e-01
3.600764718281859587e+03 1.778279410038922925e-01
3.838690809516097033e+03 3.162277660168379412e-01
4.106833809696824574e+03 5.623413251903490728e-01
4.445564235180596370e+03 1.000000000000000000e+00
4.915521192078795139e+03 1.778279410038922759e+00
5.651112519647079353e+03 3.162277660168379523e+00
6.832497264023990283e+03 5.623413251903491172e+00
8.427723584853451030e+03 1.000000000000000000e+01
1.000000000000000000e+04 1.778279410038922848e+01
1.000000000000000000e+04 3.162277660168379256e+01
1.000000000000000000e+04 5.623413251903490817e+01
1.000000000000000000e+04 1.000000000000000000e+02
1.000000000000000000e+04 1.778279410038922776e+02
1.000000000000000000e+04 3.162277660168379612e+02
