# Temperature (K), Pressure (bars)
2.165968162336384012e+03 9.999999999999999547e-07
2.194908544650417298e+03 1.778279410038922901e-06
2.223848926964450129e+03 3.162277660168379191e-06
2.257347411950442620e+03 5.623413251903491208e-06
2.291402501605215548e+03 1.000000000000000082e-05
2.327499769349063627e+03 1.778279410038922901e-05
2.365903564059133259e+03 3.162277660168379530e-05
2.403004304247831897e+03 5.623413251903490700e-05
2.436102345625640282e+03 1.000000000000000048e-04
2.463090418339073494e+03 1.778279410038922698e-04
2.485569594623173089e+03 3.162277660168379394e-04
2.509621556131886791e+03 5.623413251903490971e-04
2.541547041184232967e+03 1.000000000000000021e-03
2.585200711823242727e+03 1.778279410038922752e-03
2.639477842931049508e+03 3.162277660168379394e-03
2.701720140459525737e+03 5.623413251903490971e-03
2.762665589614781766e+03 1.000000000000000021e-02
2.833528030678298819e+03 1.778279410038922925e-02
2.944994917545785484e+03 3.162277660168379134e-02
3.088184195600040766e+03 5.623413251903491145e-02
3.249626876698381238e+03 1.000000000000000056e-01
3.440258552702224733e+03 1.778279410038922925e-01
3.639213221211126438e+03 3.162277660168379412e-01
3.867882541034425230e+03 5.623413251903490728e-01
4.134382542921131062e+03 1.000000000000000000e+00
4.442005823407670505e+03 1.778279410038922759e+00
4.831500393011780943e+03 3.162277660168379523e+00
5.363208035661754366e+03 5.623413251903491172e+00
6.165801962700967124e+03 1.000000000000000000e+01
7.413773483841031521e+03 1.778279410038922848e+01
9.097808741279002788e+03 3.162277660168379256e+01
1.000000000000000000e+04 5.623413251903490817e+01
1.000000000000000000e+04 1.000000000000000000e+02
1.000000000000000000e+04 1.778279410038922776e+02
1.000000000000000000e+04 3.162277660168379612e+02
