# Temperature (K), Pressure (bars)
2.396943711348593752e+03 9.999999999999999547e-07
2.415735346109466718e+03 1.778279410038922901e-06
2.434526980870339685e+03 3.162277660168379191e-06
2.462763645296120558e+03 5.623413251903491208e-06
2.494883030455650896e+03 1.000000000000000082e-05
2.527979372313346175e+03 1.778279410038922901e-05
2.562939272623877514e+03 3.162277660168379530e-05
2.601083767757020723e+03 5.623413251903490700e-05
2.643487574816890628e+03 1.000000000000000048e-04
2.689690875379295903e+03 1.778279410038922698e-04
2.738866309948419257e+03 3.162277660168379394e-04
2.789530907811311408e+03 5.623413251903490971e-04
2.839157267542516820e+03 1.000000000000000021e-03
2.884280792633830060e+03 1.778279410038922752e-03
2.922378736429525361e+03 3.162277660168379394e-03
2.954962872056281867e+03 5.623413251903490971e-03
2.987830429994236965e+03 1.000000000000000021e-02
3.030948506580154572e+03 1.778279410038922925e-02
3.089080797396899470e+03 3.162277660168379134e-02
3.171146845851812941e+03 5.623413251903491145e-02
3.296642319679394859e+03 1.000000000000000056e-01
3.463962376669534933e+03 1.778279410038922925e-01
3.660050036764514516e+03 3.162277660168379412e-01
3.885939459804561466e+03 5.623413251903490728e-01
4.155133789962108494e+03 1.000000000000000000e+00
4.469258529702538908e+03 1.778279410038922759e+00
4.870823471022985359e+03 3.162277660168379523e+00
5.426288065964216003e+03 5.623413251903491172e+00
6.272489140116093949e+03 1.000000000000000000e+01
7.580796575416849009e+03 1.778279410038922848e+01
9.303864116518892843e+03 3.162277660168379256e+01
1.000000000000000000e+04 5.623413251903490817e+01
1.000000000000000000e+04 1.000000000000000000e+02
1.000000000000000000e+04 1.778279410038922776e+02
1.000000000000000000e+04 3.162277660168379612e+02
