# Temperature (K), Pressure (bars)
2.265588206918700962e+03 9.999999999999999547e-07
2.289626821305251724e+03 1.778279410038922901e-06
2.313665435823114422e+03 3.162277660168379191e-06
2.338873782810189368e+03 5.623413251903491208e-06
2.362342226181593105e+03 1.000000000000000082e-05
2.381929110569924887e+03 1.778279410038922901e-05
2.398003423491395097e+03 3.162277660168379530e-05
2.415032164797918995e+03 5.623413251903490700e-05
2.441495339436854920e+03 1.000000000000000048e-04
2.483476295989670689e+03 1.778279410038922698e-04
2.541147495429924675e+03 3.162277660168379394e-04
2.612127064111230538e+03 5.623413251903490971e-04
2.695159121832420169e+03 1.000000000000000021e-03
2.790319681084792137e+03 1.778279410038922752e-03
2.898424185317674528e+03 3.162277660168379394e-03
3.018920992343138096e+03 5.623413251903490971e-03
3.152584163264999006e+03 1.000000000000000021e-02
3.299410355184550099e+03 1.778279410038922925e-02
3.462485213938954530e+03 3.162277660168379134e-02
3.719950214079248326e+03 5.623413251903491145e-02
4.105049399424718104e+03 1.000000000000000056e-01
4.799537873572932767e+03 1.778279410038922925e-01
5.876081117854147124e+03 3.162277660168379412e-01
7.304821706207435454e+03 5.623413251903490728e-01
8.790732179946995529e+03 1.000000000000000000e+00
1.016252781550856889e+04 1.778279410038922759e+00
1.166186375831579244e+04 3.162277660168379523e+00
1.356629073002676523e+04 5.623413251903491172e+00
1.598493458834997728e+04 1.000000000000000000e+01
1.905043157214149323e+04 1.778279410038922848e+01
2.291994144073672578e+04 3.162277660168379256e+01
2.777088318842940862e+04 5.623413251903490817e+01
3.378791037267538923e+04 1.000000000000000000e+02
4.113244520810842369e+04 1.778279410038922776e+02
4.989396208565026609e+04 3.162277660168379612e+02
