# Temperature (K), Pressure (bars)
2.218613028796331491e+03 9.999999999999999547e-07
2.227124266291154981e+03 1.778279410038922901e-06
2.235635503785978017e+03 3.162277660168379191e-06
2.264933538089524518e+03 5.623413251903491208e-06
2.306208801088140717e+03 1.000000000000000082e-05
2.350787583085998904e+03 1.778279410038922901e-05
2.400068606995460868e+03 3.162277660168379530e-05
2.453127337732879823e+03 5.623413251903490700e-05
2.507492073112171056e+03 1.000000000000000048e-04
2.561455294663614495e+03 1.778279410038922698e-04
2.613900577232928299e+03 3.162277660168379394e-04
2.663934997983513767e+03 5.623413251903490971e-04
2.712169936967917693e+03 1.000000000000000021e-03
2.762971403185063991e+03 1.778279410038922752e-03
2.819994497307617621e+03 3.162277660168379394e-03
2.884768488300667286e+03 5.623413251903490971e-03
2.947297795270626466e+03 1.000000000000000021e-02
3.011819211884512697e+03 1.778279410038922925e-02
3.116797545648269079e+03 3.162277660168379134e-02
3.277468291918198247e+03 5.623413251903491145e-02
3.459601166992348681e+03 1.000000000000000056e-01
3.676958511135944264e+03 1.778279410038922925e-01
3.937347324546639356e+03 3.162277660168379412e-01
4.246696655223491689e+03 5.623413251903490728e-01
4.670731186467977750e+03 1.000000000000000000e+00
5.330783273847704550e+03 1.778279410038922759e+00
6.413026689936978073e+03 3.162277660168379523e+00
7.925537825937139132e+03 5.623413251903491172e+00
9.640070563993393080e+03 1.000000000000000000e+01
1.000000000000000000e+04 1.778279410038922848e+01
1.000000000000000000e+04 3.162277660168379256e+01
1.000000000000000000e+04 5.623413251903490817e+01
1.000000000000000000e+04 1.000000000000000000e+02
1.000000000000000000e+04 1.778279410038922776e+02
1.000000000000000000e+04 3.162277660168379612e+02
