# Temperature (K), Pressure (bars)
7.488416040619158593e+02 3.162277660168379394e-04
7.892292163947171275e+02 5.623413251903490971e-04
8.296168296257612838e+02 1.000000000000000021e-03
8.691338843446944793e+02 1.778279410038922752e-03
9.088218639108672505e+02 3.162277660168379394e-03
9.493644392736839563e+02 5.623413251903490971e-03
9.919206731700439832e+02 1.000000000000000021e-02
1.039387784519737579e+03 1.778279410038922925e-02
1.095579134906092577e+03 3.162277660168379134e-02
1.166521389603539092e+03 5.623413251903491145e-02
1.258522507764986130e+03 1.000000000000000056e-01
1.386995927257713902e+03 1.778279410038922925e-01
1.578093334556972195e+03 3.162277660168379412e-01
1.827070243316110009e+03 5.623413251903490728e-01
2.099009705697597383e+03 1.000000000000000000e+00
2.372053777879110385e+03 1.778279410038922759e+00
2.637709435422459137e+03 3.162277660168379523e+00
2.893595612208444891e+03 5.623413251903491172e+00
3.144828309275018455e+03 1.000000000000000000e+01
3.399118553963877275e+03 1.778279410038922848e+01
3.666178530193950792e+03 3.162277660168379256e+01
3.951473821494778804e+03 5.623413251903490817e+01
4.261785697951129805e+03 1.000000000000000000e+02
4.600413150959751874e+03 1.778279410038922776e+02
4.984617047981848373e+03 3.162277660168379612e+02
