# Temperature (K), Pressure (bars)
1.039559731617905527e+03 9.999999999999999547e-07
1.055041554855224149e+03 1.778279410038922901e-06
1.070523378119239624e+03 3.162277660168379191e-06
1.092144192499295968e+03 5.623413251903491208e-06
1.120553202791554668e+03 1.000000000000000082e-05
1.154252366899234175e+03 1.778279410038922901e-05
1.193594926171595489e+03 3.162277660168379530e-05
1.238640386153099371e+03 5.623413251903490700e-05
1.288234196784766709e+03 1.000000000000000048e-04
1.342153107373321973e+03 1.778279410038922698e-04
1.402057970403847776e+03 3.162277660168379394e-04
1.468243480866629625e+03 5.623413251903490971e-04
1.543869945724929948e+03 1.000000000000000021e-03
1.633848936478217411e+03 1.778279410038922752e-03
1.738271291373444001e+03 3.162277660168379394e-03
1.847269201590878311e+03 5.623413251903490971e-03
1.976022466815156349e+03 1.000000000000000021e-02
2.148930909663462444e+03 1.778279410038922925e-02
2.333985029629947348e+03 3.162277660168379134e-02
2.506206133909056462e+03 5.623413251903491145e-02
2.675034307109197471e+03 1.000000000000000056e-01
2.844616292323229118e+03 1.778279410038922925e-01
3.018016452877702704e+03 3.162277660168379412e-01
3.197375948068158323e+03 5.623413251903490728e-01
3.384749596148527417e+03 1.000000000000000000e+00
3.583324285983572281e+03 1.778279410038922759e+00
3.797522474176368632e+03 3.162277660168379523e+00
4.032444436420481907e+03 5.623413251903491172e+00
4.293992563692880140e+03 1.000000000000000000e+01
4.589571896339431987e+03 1.778279410038922848e+01
4.929304627883228022e+03 3.162277660168379256e+01
5.330545223276426441e+03 5.623413251903490817e+01
5.809525463267752457e+03 1.000000000000000000e+02
6.395377686775892471e+03 1.778279410038922776e+02
7.133155917865706215e+03 3.162277660168379612e+02
