# Temperature (K), Pressure (bars)
9.196658859931355892e+02 5.623413251903490700e-05
9.771250515922147315e+02 1.000000000000000048e-04
1.034584217339258885e+03 1.778279410038922698e-04
1.086309619198612381e+03 3.162277660168379394e-04
1.133024089770524370e+03 5.623413251903490971e-04
1.179967411685528987e+03 1.000000000000000021e-03
1.228407002402433136e+03 1.778279410038922752e-03
1.270112481377154836e+03 3.162277660168379394e-03
1.302921403603083490e+03 5.623413251903490971e-03
1.337150654769196080e+03 1.000000000000000021e-02
1.375413182026975619e+03 1.778279410038922925e-02
1.419717345678572656e+03 3.162277660168379134e-02
1.504850899708671022e+03 5.623413251903491145e-02
1.662908872292105116e+03 1.000000000000000056e-01
1.858155441264492993e+03 1.778279410038922925e-01
2.070240709546933431e+03 3.162277660168379412e-01
2.318907853219700428e+03 5.623413251903490728e-01
2.570083204959505110e+03 1.000000000000000000e+00
2.800168676231469817e+03 1.778279410038922759e+00
3.024369295813821736e+03 3.162277660168379523e+00
3.249469562405567103e+03 5.623413251903491172e+00
3.481707302714540674e+03 1.000000000000000000e+01
3.727318286253853785e+03 1.778279410038922848e+01
3.994382064917636399e+03 3.162277660168379256e+01
4.287922451281819122e+03 5.623413251903490817e+01
4.614890637460790458e+03 1.000000000000000000e+02
4.978719775727024171e+03 1.778279410038922776e+02
5.399431447607847986e+03 3.162277660168379612e+02
