# Temperature (K), Pressure (bars)
2.080368091272732272e+03 1.778279410038922901e-06
2.091430760314504369e+03 3.162277660168379191e-06
2.102493439552703876e+03 5.623413251903491208e-06
2.113382541651790689e+03 1.000000000000000082e-05
2.126765482529616747e+03 1.778279410038922901e-05
2.146908392294139048e+03 3.162277660168379530e-05
2.175926447931184157e+03 5.623413251903490700e-05
2.212627380737153544e+03 1.000000000000000048e-04
2.255326838309137202e+03 1.778279410038922698e-04
2.302901304339006401e+03 3.162277660168379394e-04
2.352629832154160340e+03 5.623413251903490971e-04
2.400885458126742833e+03 1.000000000000000021e-03
2.445819219975012857e+03 1.778279410038922752e-03
2.485869636554639328e+03 3.162277660168379394e-03
2.520920052310302708e+03 5.623413251903490971e-03
2.552580708748466805e+03 1.000000000000000021e-02
2.589580076173667749e+03 1.778279410038922925e-02
2.632913128182006858e+03 3.162277660168379134e-02
2.703643420719759433e+03 5.623413251903491145e-02
2.832231630154287359e+03 1.000000000000000056e-01
2.986475218102619237e+03 1.778279410038922925e-01
3.143179462529892135e+03 3.162277660168379412e-01
3.315571446528655997e+03 5.623413251903490728e-01
3.506374346094848988e+03 1.000000000000000000e+00
3.716505724760017529e+03 1.778279410038922759e+00
3.947556502142173031e+03 3.162277660168379523e+00
4.203629498500163209e+03 5.623413251903491172e+00
4.491836567342439594e+03 1.000000000000000000e+01
4.822461835386533494e+03 1.778279410038922848e+01
5.210467125925535584e+03 3.162277660168379256e+01
5.678113950864789331e+03 5.623413251903490817e+01
6.258539353016672976e+03 1.000000000000000000e+02
7.006491197771164479e+03 1.778279410038922776e+02
8.011028892009693664e+03 3.162277660168379612e+02
