# Temperature (K), Pressure (bars)
2.281827584924959410e+03 9.999999999999999547e-07
2.303579576888267184e+03 1.778279410038922901e-06
2.325331568851664088e+03 3.162277660168379191e-06
2.350351138570455078e+03 5.623413251903491208e-06
2.378242984667027940e+03 1.000000000000000082e-05
2.406962277711735624e+03 1.778279410038922901e-05
2.435885992338837241e+03 3.162277660168379530e-05
2.465143075422145102e+03 5.623413251903490700e-05
2.492370836326418612e+03 1.000000000000000048e-04
2.513406635017326153e+03 1.778279410038922698e-04
2.525971207950899952e+03 3.162277660168379394e-04
2.533568541659694347e+03 5.623413251903490971e-04
2.544506421820335618e+03 1.000000000000000021e-03
2.565109063823129873e+03 1.778279410038922752e-03
2.597744945557358278e+03 3.162277660168379394e-03
2.641797891266349779e+03 5.623413251903490971e-03
2.698002441253373490e+03 1.000000000000000021e-02
2.764029888529619711e+03 1.778279410038922925e-02
2.845789331613325430e+03 3.162277660168379134e-02
2.959039231872695837e+03 5.623413251903491145e-02
3.097675429393461400e+03 1.000000000000000056e-01
3.252237945861448679e+03 1.778279410038922925e-01
3.426946334167495479e+03 3.162277660168379412e-01
3.625730310972970528e+03 5.623413251903490728e-01
3.851938933295317838e+03 1.000000000000000000e+00
4.109501825256134907e+03 1.778279410038922759e+00
4.406576240836027864e+03 3.162277660168379523e+00
4.744060367845503606e+03 5.623413251903491172e+00
5.161427694539320328e+03 1.000000000000000000e+01
5.704987183127948811e+03 1.778279410038922848e+01
6.464974236416255735e+03 3.162277660168379256e+01
7.592662539181858847e+03 5.623413251903490817e+01
9.196835519216800094e+03 1.000000000000000000e+02
1.119947081807267205e+04 1.778279410038922776e+02
1.358726143779576523e+04 3.162277660168379612e+02
