# Temperature (K), Pressure (bars)
9.041573031339009958e+02 3.162277660168379394e-04
9.441228203874406972e+02 5.623413251903490971e-04
9.840883376301720773e+02 1.000000000000000021e-03
1.023709936190816848e+03 1.778279410038922752e-03
1.065046572268478940e+03 3.162277660168379394e-03
1.109019937767263627e+03 5.623413251903490971e-03
1.154741275193402316e+03 1.000000000000000021e-02
1.201776577705274576e+03 1.778279410038922925e-02
1.251834241726267010e+03 3.162277660168379134e-02
1.313622926107611192e+03 5.623413251903491145e-02
1.398818153210650962e+03 1.000000000000000056e-01
1.518275173471493417e+03 1.778279410038922925e-01
1.668561705496087598e+03 3.162277660168379412e-01
1.860046812103098773e+03 5.623413251903490728e-01
2.111316591870239336e+03 1.000000000000000000e+00
2.386168862814307431e+03 1.778279410038922759e+00
2.650309845367320122e+03 3.162277660168379523e+00
2.905633414976432050e+03 5.623413251903491172e+00
3.156776026519339212e+03 1.000000000000000000e+01
3.411089986651472827e+03 1.778279410038922848e+01
3.677928625474751243e+03 3.162277660168379256e+01
3.963312471137432112e+03 5.623413251903490817e+01
4.274058515906097455e+03 1.000000000000000000e+02
4.613444966031049262e+03 1.778279410038922776e+02
4.998841664567212320e+03 3.162277660168379612e+02
