# Temperature (K), Pressure (bars)
2.084403432205903755e+03 9.999999999999999547e-07
2.088211604095698021e+03 1.778279410038922901e-06
2.092019775985492288e+03 3.162277660168379191e-06
2.105438610037891976e+03 5.623413251903491208e-06
2.123033859609205592e+03 1.000000000000000082e-05
2.144801425001856842e+03 1.778279410038922901e-05
2.174553324782109030e+03 3.162277660168379530e-05
2.211292036617465328e+03 5.623413251903490700e-05
2.253755023406419241e+03 1.000000000000000048e-04
2.301011455140149337e+03 1.778279410038922698e-04
2.350575095843105373e+03 3.162277660168379394e-04
2.399174386808039799e+03 5.623413251903490971e-04
2.445047817906114688e+03 1.000000000000000021e-03
2.486705584256420025e+03 1.778279410038922752e-03
2.523485363836512988e+03 3.162277660168379394e-03
2.555973121893790903e+03 5.623413251903490971e-03
2.591479306296403593e+03 1.000000000000000021e-02
2.631977574412761442e+03 1.778279410038922925e-02
2.695498803423030040e+03 3.162277660168379134e-02
2.809309248462271626e+03 5.623413251903491145e-02
2.950268132608996893e+03 1.000000000000000056e-01
3.098548039284665265e+03 1.778279410038922925e-01
3.263424090525114934e+03 3.162277660168379412e-01
3.447723250563800320e+03 5.623413251903490728e-01
3.652458690751859194e+03 1.000000000000000000e+00
3.878628438938982526e+03 1.778279410038922759e+00
4.129756044418545571e+03 3.162277660168379523e+00
4.413103944347285506e+03 5.623413251903491172e+00
4.739981240509000600e+03 1.000000000000000000e+01
5.124427041689141333e+03 1.778279410038922848e+01
5.595960744126713507e+03 3.162277660168379256e+01
6.198428370900946902e+03 5.623413251903490817e+01
7.009593730709016199e+03 1.000000000000000000e+02
8.153754477252236029e+03 1.778279410038922776e+02
9.757114614867337878e+03 3.162277660168379612e+02
