# Temperature (K), Pressure (bars)
2.327260931909112969e+03 9.999999999999999547e-07
2.346667619266976089e+03 1.778279410038922901e-06
2.366074306624840119e+03 3.162277660168379191e-06
2.393162112982825874e+03 5.623413251903491208e-06
2.425743086855636648e+03 1.000000000000000082e-05
2.461265301916515000e+03 1.778279410038922901e-05
2.499074393664468516e+03 3.162277660168379530e-05
2.538195432661710129e+03 5.623413251903490700e-05
2.577366921107890448e+03 1.000000000000000048e-04
2.614462994809806332e+03 1.778279410038922698e-04
2.647430602360554076e+03 3.162277660168379394e-04
2.675850688714532225e+03 5.623413251903490971e-04
2.702194755055683800e+03 1.000000000000000021e-03
2.731015329854419178e+03 1.778279410038922752e-03
2.767526815849937066e+03 3.162277660168379394e-03
2.815425979566076421e+03 5.623413251903490971e-03
2.878271969992117192e+03 1.000000000000000021e-02
2.956560020557962162e+03 1.778279410038922925e-02
3.055809545991237428e+03 3.162277660168379134e-02
3.187417342663642103e+03 5.623413251903491145e-02
3.348615812740322326e+03 1.000000000000000056e-01
3.538306960537555824e+03 1.778279410038922925e-01
3.751083290389291506e+03 3.162277660168379412e-01
4.005383024688781461e+03 5.623413251903490728e-01
4.298703954701907605e+03 1.000000000000000000e+00
4.674899324803872332e+03 1.778279410038922759e+00
5.200739260201907200e+03 3.162277660168379523e+00
6.010581792230238534e+03 5.623413251903491172e+00
7.277600916165753006e+03 1.000000000000000000e+01
8.952802547168026649e+03 1.778279410038922848e+01
1.000000000000000000e+04 3.162277660168379256e+01
1.000000000000000000e+04 5.623413251903490817e+01
1.000000000000000000e+04 1.000000000000000000e+02
1.000000000000000000e+04 1.778279410038922776e+02
1.000000000000000000e+04 3.162277660168379612e+02
