# Temperature (K), Pressure (bars)
1.515693287439612050e+03 9.999999999999999547e-07
1.525098063783380667e+03 1.778279410038922901e-06
1.534502840186703224e+03 3.162277660168379191e-06
1.548722470706705280e+03 5.623413251903491208e-06
1.568336339757682708e+03 1.000000000000000082e-05
1.593693375679650671e+03 1.778279410038922901e-05
1.624813122069606834e+03 3.162277660168379530e-05
1.660833074753374603e+03 5.623413251903490700e-05
1.701838829726996892e+03 1.000000000000000048e-04
1.746839187830541960e+03 1.778279410038922698e-04
1.795698126662411823e+03 3.162277660168379394e-04
1.849060085952801728e+03 5.623413251903490971e-04
1.906365368285172735e+03 1.000000000000000021e-03
1.967016126187573491e+03 1.778279410038922752e-03
2.033435490944918911e+03 3.162277660168379394e-03
2.106152875637346824e+03 5.623413251903490971e-03
2.192583360744381480e+03 1.000000000000000021e-02
2.308526304126856303e+03 1.778279410038922925e-02
2.447436022079033137e+03 3.162277660168379134e-02
2.592979357882521072e+03 5.623413251903491145e-02
2.742920577821260849e+03 1.000000000000000056e-01
2.899997173809224932e+03 1.778279410038922925e-01
3.066819165318759133e+03 3.162277660168379412e-01
3.245166806728114352e+03 5.623413251903490728e-01
3.435809886480479236e+03 1.000000000000000000e+00
3.640012818191762562e+03 1.778279410038922759e+00
3.861064201763540495e+03 3.162277660168379523e+00
4.104089521453757698e+03 5.623413251903491172e+00
4.375683820687847401e+03 1.000000000000000000e+01
4.684439120693088626e+03 1.778279410038922848e+01
5.044347731870831922e+03 3.162277660168379256e+01
5.470260011403994213e+03 5.623413251903490817e+01
5.985574698778231323e+03 1.000000000000000000e+02
6.628057756126316235e+03 1.778279410038922776e+02
7.456851602155278670e+03 3.162277660168379612e+02
