# Temperature (K), Pressure (bars)
2.340940886367117855e+03 9.999999999999999547e-07
2.354870676638116493e+03 1.778279410038922901e-06
2.368800466909115585e+03 3.162277660168379191e-06
2.395051141596651178e+03 5.623413251903491208e-06
2.427287687237740556e+03 1.000000000000000082e-05
2.459912296441076705e+03 1.778279410038922901e-05
2.496241687858630485e+03 3.162277660168379530e-05
2.537955922315737098e+03 5.623413251903490700e-05
2.583688204905001840e+03 1.000000000000000048e-04
2.631728115776204959e+03 1.778279410038922698e-04
2.679289728748532525e+03 3.162277660168379394e-04
2.722700270302005720e+03 5.623413251903490971e-04
2.760274821284512200e+03 1.000000000000000021e-03
2.795769338279010753e+03 1.778279410038922752e-03
2.839144399102656280e+03 3.162277660168379394e-03
2.894050242252373209e+03 5.623413251903490971e-03
2.956394827404026728e+03 1.000000000000000021e-02
3.010866782505844185e+03 1.778279410038922925e-02
3.079512668413931806e+03 3.162277660168379134e-02
3.212656360666635919e+03 5.623413251903491145e-02
3.394161227611724371e+03 1.000000000000000056e-01
3.588736934288743669e+03 1.778279410038922925e-01
3.821365065580686860e+03 3.162277660168379412e-01
4.091132492498555166e+03 5.623413251903490728e-01
4.421808014134487166e+03 1.000000000000000000e+00
4.874422877667404464e+03 1.778279410038922759e+00
5.575057826026439216e+03 3.162277660168379523e+00
6.711847062226957860e+03 5.623413251903491172e+00
8.276938534783314026e+03 1.000000000000000000e+01
1.000000000000000000e+04 1.778279410038922848e+01
1.000000000000000000e+04 3.162277660168379256e+01
1.000000000000000000e+04 5.623413251903490817e+01
1.000000000000000000e+04 1.000000000000000000e+02
1.000000000000000000e+04 1.778279410038922776e+02
1.000000000000000000e+04 3.162277660168379612e+02
