# Temperature (K), Pressure (bars)
2.236378019059264261e+03 9.999999999999999547e-07
2.257976380790566509e+03 1.778279410038922901e-06
2.279574742521868757e+03 3.162277660168379191e-06
2.302921165692758223e+03 5.623413251903491208e-06
2.328313641156539234e+03 1.000000000000000082e-05
2.354976510184374092e+03 1.778279410038922901e-05
2.382902903505265840e+03 3.162277660168379530e-05
2.411499078726065363e+03 5.623413251903490700e-05
2.439002837073907813e+03 1.000000000000000048e-04
2.463661431362996609e+03 1.778279410038922698e-04
2.484567639179170783e+03 3.162277660168379394e-04
2.503280584592905143e+03 5.623413251903490971e-04
2.523669258515380989e+03 1.000000000000000021e-03
2.549281424954927843e+03 1.778279410038922752e-03
2.582941332503187368e+03 3.162277660168379394e-03
2.625955261500304005e+03 5.623413251903490971e-03
2.681286583171893653e+03 1.000000000000000021e-02
2.748580840221745348e+03 1.778279410038922925e-02
2.836474935613593516e+03 3.162277660168379134e-02
2.958768135721770705e+03 5.623413251903491145e-02
3.102566779610226604e+03 1.000000000000000056e-01
3.259018760270739222e+03 1.778279410038922925e-01
3.435889466115503637e+03 3.162277660168379412e-01
3.636949134784707439e+03 5.623413251903490728e-01
3.865256847739132354e+03 1.000000000000000000e+00
4.125067432486751386e+03 1.778279410038922759e+00
4.425319076170804692e+03 3.162277660168379523e+00
4.768285210120765441e+03 5.623413251903491172e+00
5.194630934277130109e+03 1.000000000000000000e+01
5.753483191528830503e+03 1.778279410038922848e+01
6.540241233285447379e+03 3.162277660168379256e+01
7.713910431627623439e+03 5.623413251903490817e+01
9.365930653764951785e+03 1.000000000000000000e+02
1.140791733783552081e+04 1.778279410038922776e+02
1.383957540619837710e+04 3.162277660168379612e+02
