# Temperature (K), Pressure (bars)
1.353334084636315765e+03 9.999999999999999547e-07
1.401496608133023074e+03 1.778279410038922901e-06
1.449659131629996409e+03 3.162277660168379191e-06
1.519836309520249870e+03 5.623413251903491208e-06
1.595870427971689878e+03 1.000000000000000082e-05
1.660925972878605307e+03 1.778279410038922901e-05
1.718564352847309692e+03 3.162277660168379530e-05
1.773835195590237618e+03 5.623413251903490700e-05
1.831804757609705121e+03 1.000000000000000048e-04
1.893079949182114660e+03 1.778279410038922698e-04
1.955543019787290632e+03 3.162277660168379394e-04
2.021986520157073301e+03 5.623413251903490971e-04
2.094472115665319052e+03 1.000000000000000021e-03
2.179888107483550812e+03 1.778279410038922752e-03
2.286526048986098431e+03 3.162277660168379394e-03
2.407874446907116180e+03 5.623413251903490971e-03
2.536097260833649671e+03 1.000000000000000021e-02
2.671571240002250306e+03 1.778279410038922925e-02
2.815611268237991226e+03 3.162277660168379134e-02
2.970375315058981414e+03 5.623413251903491145e-02
3.138512028495459163e+03 1.000000000000000056e-01
3.322311179173692835e+03 1.778279410038922925e-01
3.523317896811763603e+03 3.162277660168379412e-01
3.744070016299957388e+03 5.623413251903490728e-01
3.990573914286101171e+03 1.000000000000000000e+00
4.273814414051761560e+03 1.778279410038922759e+00
4.597085113805760557e+03 3.162277660168379523e+00
5.001218309555389169e+03 5.623413251903491172e+00
5.535452083355373361e+03 1.000000000000000000e+01
6.283976728729494425e+03 1.778279410038922848e+01
7.384208039309493870e+03 3.162277660168379256e+01
8.979277787444290880e+03 5.623413251903490817e+01
1.095888939286265304e+04 1.000000000000000000e+02
1.333767706164771334e+04 1.778279410038922776e+02
1.617270555804730429e+04 3.162277660168379612e+02
