# Temperature (K), Pressure (bars)
7.792686507383626804e+02 3.162277660168379394e-04
8.187224302039907116e+02 5.623413251903490971e-04
8.581762105898841355e+02 1.000000000000000021e-03
8.975938081415135912e+02 1.778279410038922752e-03
9.372825259891193355e+02 3.162277660168379394e-03
9.776956423184182086e+02 5.623413251903490971e-03
1.019374298730110695e+03 1.000000000000000021e-02
1.063717544862956174e+03 1.778279410038922925e-02
1.113675104510681422e+03 3.162277660168379134e-02
1.173789396865163781e+03 5.623413251903491145e-02
1.249861319970918203e+03 1.000000000000000056e-01
1.355373075503373911e+03 1.778279410038922925e-01
1.510886434827436233e+03 3.162277660168379412e-01
1.728865256522728487e+03 5.623413251903490728e-01
1.994867883285323387e+03 1.000000000000000000e+00
2.274050424346618456e+03 1.778279410038922759e+00
2.546941974840137846e+03 3.162277660168379523e+00
2.811420639283013770e+03 5.623413251903491172e+00
3.069619594629646144e+03 1.000000000000000000e+01
3.328404266220429690e+03 1.778279410038922848e+01
3.597457663396804037e+03 3.162277660168379256e+01
3.882864521784546469e+03 5.623413251903490817e+01
4.191667029459453261e+03 1.000000000000000000e+02
4.527488725826290647e+03 1.778279410038922776e+02
4.906636662448237985e+03 3.162277660168379612e+02
