# Temperature (K), Pressure (bars)
2.230741647338348685e+03 9.999999999999999547e-07
2.256279019305840848e+03 1.778279410038922901e-06
2.281816391273333920e+03 3.162277660168379191e-06
2.312086241580909700e+03 5.623413251903491208e-06
2.344515634547162335e+03 1.000000000000000082e-05
2.377914254159557913e+03 1.778279410038922901e-05
2.411503705446353706e+03 3.162277660168379530e-05
2.441596312370476880e+03 5.623413251903490700e-05
2.463560386657768959e+03 1.000000000000000048e-04
2.476520361332194170e+03 1.778279410038922698e-04
2.488920808764201411e+03 3.162277660168379394e-04
2.512418449907091144e+03 5.623413251903490971e-04
2.551824221737242624e+03 1.000000000000000021e-03
2.606338333529931333e+03 1.778279410038922752e-03
2.672208874643460604e+03 3.162277660168379394e-03
2.746627182898196224e+03 5.623413251903490971e-03
2.822900018903652835e+03 1.000000000000000021e-02
2.909353127615748690e+03 1.778279410038922925e-02
3.029807519439048065e+03 3.162277660168379134e-02
3.180280997588984974e+03 5.623413251903491145e-02
3.356154463640564245e+03 1.000000000000000056e-01
3.545010001752076732e+03 1.778279410038922925e-01
3.765910824890165259e+03 3.162277660168379412e-01
4.029710823142830122e+03 5.623413251903490728e-01
4.334173929438715277e+03 1.000000000000000000e+00
4.732099798833889508e+03 1.778279410038922759e+00
5.307737129017461484e+03 3.162277660168379523e+00
6.232425528014092379e+03 5.623413251903491172e+00
7.628705170241010819e+03 1.000000000000000000e+01
9.361072644463874894e+03 1.778279410038922848e+01
1.000000000000000000e+04 3.162277660168379256e+01
1.000000000000000000e+04 5.623413251903490817e+01
1.000000000000000000e+04 1.000000000000000000e+02
1.000000000000000000e+04 1.778279410038922776e+02
1.000000000000000000e+04 3.162277660168379612e+02
