# Temperature (K), Pressure (bars)
1.037317612876599924e+03 9.999999999999999547e-07
1.077328109626890182e+03 1.778279410038922901e-06
1.117338606378046507e+03 3.162277660168379191e-06
1.157725960092826199e+03 5.623413251903491208e-06
1.200395915461200275e+03 1.000000000000000082e-05
1.246299026242145374e+03 1.778279410038922901e-05
1.295672141592509888e+03 3.162277660168379530e-05
1.349272195093192977e+03 5.623413251903490700e-05
1.408915773803742923e+03 1.000000000000000048e-04
1.475379329438768536e+03 1.778279410038922698e-04
1.550629843916055506e+03 3.162277660168379394e-04
1.637288912556597097e+03 5.623413251903490971e-04
1.738101369884404676e+03 1.000000000000000021e-03
1.867615864154754945e+03 1.778279410038922752e-03
2.029810461050402637e+03 3.162277660168379394e-03
2.201712608965368418e+03 5.623413251903490971e-03
2.368454434030059929e+03 1.000000000000000021e-02
2.531987007380036175e+03 1.778279410038922925e-02
2.695722289983472365e+03 3.162277660168379134e-02
2.862537059957571273e+03 5.623413251903491145e-02
3.034806106709516826e+03 1.000000000000000056e-01
3.214311675092617406e+03 1.778279410038922925e-01
3.402728394660860431e+03 3.162277660168379412e-01
3.603126972650854896e+03 5.623413251903490728e-01
3.820748210935849329e+03 1.000000000000000000e+00
4.062653768488949027e+03 1.778279410038922759e+00
4.338187371116509894e+03 3.162277660168379523e+00
4.660583345853428000e+03 5.623413251903491172e+00
5.047232440844989469e+03 1.000000000000000000e+01
5.534863427245266394e+03 1.778279410038922848e+01
6.180586819821783138e+03 3.162277660168379256e+01
7.077608616764062390e+03 5.623413251903490817e+01
8.383112044930940101e+03 1.000000000000000000e+02
1.016888930301129039e+04 1.778279410038922776e+02
1.233195921907865522e+04 3.162277660168379612e+02
