# Temperature (K), Pressure (bars)
2.108614559997594370e+03 9.999999999999999547e-07
2.133392553475174282e+03 1.778279410038922901e-06
2.158170546952754648e+03 3.162277660168379191e-06
2.195472972290515372e+03 5.623413251903491208e-06
2.238805759945331829e+03 1.000000000000000082e-05
2.284343531683268338e+03 1.778279410038922901e-05
2.333548020543588336e+03 3.162277660168379530e-05
2.383821552072985014e+03 5.623413251903490700e-05
2.433154444260687796e+03 1.000000000000000048e-04
2.480842221969191542e+03 1.778279410038922698e-04
2.525679313181028192e+03 3.162277660168379394e-04
2.567426358910661293e+03 5.623413251903490971e-04
2.607846313829757491e+03 1.000000000000000021e-03
2.650115358624922010e+03 1.778279410038922752e-03
2.698401543310032139e+03 3.162277660168379394e-03
2.754443708596620127e+03 5.623413251903490971e-03
2.815534306669599573e+03 1.000000000000000021e-02
2.873142338507148452e+03 1.778279410038922925e-02
2.950152418984607721e+03 3.162277660168379134e-02
3.081049837881421354e+03 5.623413251903491145e-02
3.248048409638239718e+03 1.000000000000000056e-01
3.439706039583980328e+03 1.778279410038922925e-01
3.639340743677420960e+03 3.162277660168379412e-01
3.868613022150606412e+03 5.623413251903490728e-01
4.135649946146979346e+03 1.000000000000000000e+00
4.443647750335826458e+03 1.778279410038922759e+00
4.833411906178345816e+03 3.162277660168379523e+00
5.364160948664237367e+03 5.623413251903491172e+00
6.159267009888318171e+03 1.000000000000000000e+01
7.397458853139521125e+03 1.778279410038922848e+01
9.076639215425029761e+03 3.162277660168379256e+01
1.000000000000000000e+04 5.623413251903490817e+01
1.000000000000000000e+04 1.000000000000000000e+02
1.000000000000000000e+04 1.778279410038922776e+02
1.000000000000000000e+04 3.162277660168379612e+02
