# Temperature (K), Pressure (bars)
1.691059092296456583e+03 9.999999999999999547e-07
1.748678443779156169e+03 1.778279410038922901e-06
1.806297795261855754e+03 3.162277660168379191e-06
1.861356407350359632e+03 5.623413251903491208e-06
1.913368796283620441e+03 1.000000000000000082e-05
1.961132098113826942e+03 1.778279410038922901e-05
2.006059584577038549e+03 3.162277660168379530e-05
2.050914491961452768e+03 5.623413251903490700e-05
2.097069096060177799e+03 1.000000000000000048e-04
2.145813253810440983e+03 1.778279410038922698e-04
2.198773054465575569e+03 3.162277660168379394e-04
2.257733817834485762e+03 5.623413251903490971e-04
2.326754329763622536e+03 1.000000000000000021e-03
2.412075847733601222e+03 1.778279410038922752e-03
2.514231365419585927e+03 3.162277660168379394e-03
2.628860661063626594e+03 5.623413251903490971e-03
2.754155244753276747e+03 1.000000000000000021e-02
2.891012699450164291e+03 1.778279410038922925e-02
3.041975332944688489e+03 3.162277660168379134e-02
3.212808967574325379e+03 5.623413251903491145e-02
3.399167262470163223e+03 1.000000000000000056e-01
3.601566949899323390e+03 1.778279410038922925e-01
3.839592819782887091e+03 3.162277660168379412e-01
4.111138559967777837e+03 5.623413251903490728e-01
4.452555245498057047e+03 1.000000000000000000e+00
4.925959417348977695e+03 1.778279410038922759e+00
5.641952757219488376e+03 3.162277660168379523e+00
6.717896044438234640e+03 5.623413251903491172e+00
8.261408195886073372e+03 1.000000000000000000e+01
1.000000000000000000e+04 1.778279410038922848e+01
1.000000000000000000e+04 3.162277660168379256e+01
1.000000000000000000e+04 5.623413251903490817e+01
1.000000000000000000e+04 1.000000000000000000e+02
1.000000000000000000e+04 1.778279410038922776e+02
1.000000000000000000e+04 3.162277660168379612e+02
