# Temperature (K), Pressure (bars)
9.126553199001132270e+02 1.000000000000000048e-04
9.682583720873949460e+02 1.778279410038922698e-04
1.023861425758766018e+03 3.162277660168379394e-04
1.077583837981689840e+03 5.623413251903490971e-04
1.131035275828888643e+03 1.000000000000000021e-03
1.186040324632921738e+03 1.778279410038922752e-03
1.244087485593669953e+03 3.162277660168379394e-03
1.308386417428473123e+03 5.623413251903490971e-03
1.382143443972178829e+03 1.000000000000000021e-02
1.474346545029506160e+03 1.778279410038922925e-02
1.603932394667647031e+03 3.162277660168379134e-02
1.795658617998159571e+03 5.623413251903491145e-02
2.040450800075516781e+03 1.000000000000000056e-01
2.285049304605283851e+03 1.778279410038922925e-01
2.505641022840828100e+03 3.162277660168379412e-01
2.712499636141486917e+03 5.623413251903490728e-01
2.912689584939526412e+03 1.000000000000000000e+00
3.112269381805066587e+03 1.778279410038922759e+00
3.316679715831362500e+03 3.162277660168379523e+00
3.531182583131489082e+03 5.623413251903491172e+00
3.760839745734044754e+03 1.000000000000000000e+01
4.010925547362592624e+03 1.778279410038922848e+01
4.289582179997996718e+03 3.162277660168379256e+01
4.601896930936857643e+03 5.623413251903490817e+01
4.956166544728628651e+03 1.000000000000000000e+02
5.356329725131913619e+03 1.778279410038922776e+02
5.828993051169012688e+03 3.162277660168379612e+02
