# Temperature (K), Pressure (bars)
1.198470892682094473e+03 3.162277660168379394e-04
1.233147487983101882e+03 5.623413251903490971e-04
1.267824086255900966e+03 1.000000000000000021e-03
1.308494989231380259e+03 1.778279410038922752e-03
1.355282396269850778e+03 3.162277660168379394e-03
1.408139392473431599e+03 5.623413251903490971e-03
1.466991245984784882e+03 1.000000000000000021e-02
1.526934820527277225e+03 1.778279410038922925e-02
1.594161257573435705e+03 3.162277660168379134e-02
1.680797200803088799e+03 5.623413251903491145e-02
1.773482295105627372e+03 1.000000000000000056e-01
1.863141253219773034e+03 1.778279410038922925e-01
1.969415010691800489e+03 3.162277660168379412e-01
2.098640632657296010e+03 5.623413251903490728e-01
2.268117908780108337e+03 1.000000000000000000e+00
2.501435202078752354e+03 1.778279410038922759e+00
2.756611415475209924e+03 3.162277660168379523e+00
3.000842970497090846e+03 5.623413251903491172e+00
3.245378151540472118e+03 1.000000000000000000e+01
3.496891016887627757e+03 1.778279410038922848e+01
3.762792955560174505e+03 3.162277660168379256e+01
4.049289481415554746e+03 5.623413251903490817e+01
4.363242009725817297e+03 1.000000000000000000e+02
4.707759204423620758e+03 1.778279410038922776e+02
5.100953120491381924e+03 3.162277660168379612e+02
