# Temperature (K), Pressure (bars)
2.109322733865526970e+03 9.999999999999999547e-07
2.129793659969565851e+03 1.778279410038922901e-06
2.150264586073605642e+03 3.162277660168379191e-06
2.174633764852437707e+03 5.623413251903491208e-06
2.203183326018429852e+03 1.000000000000000082e-05
2.235362460679798460e+03 1.778279410038922901e-05
2.270974900577335575e+03 3.162277660168379530e-05
2.309387322498677349e+03 5.623413251903490700e-05
2.348669354471442148e+03 1.000000000000000048e-04
2.386045505425974170e+03 1.778279410038922698e-04
2.419966603686332746e+03 3.162277660168379394e-04
2.450587284682342215e+03 5.623413251903490971e-04
2.478926217976791122e+03 1.000000000000000021e-03
2.506498381828176662e+03 1.778279410038922752e-03
2.535873244045482352e+03 3.162277660168379394e-03
2.569301331803975245e+03 5.623413251903490971e-03
2.610750669131808081e+03 1.000000000000000021e-02
2.661588869772163434e+03 1.778279410038922925e-02
2.731054060429296442e+03 3.162277660168379134e-02
2.835941507477537016e+03 5.623413251903491145e-02
2.969110280892607989e+03 1.000000000000000056e-01
3.117877621650388846e+03 1.778279410038922925e-01
3.283675350929478100e+03 3.162277660168379412e-01
3.468953109389516158e+03 5.623413251903490728e-01
3.675172349032915008e+03 1.000000000000000000e+00
3.903848793606323852e+03 1.778279410038922759e+00
4.158851460578575825e+03 3.162277660168379523e+00
4.447895577071543812e+03 5.623413251903491172e+00
4.783154136438093701e+03 1.000000000000000000e+01
5.179079822064621112e+03 1.778279410038922848e+01
5.667963430599862477e+03 3.162277660168379256e+01
6.296092664188501658e+03 5.623413251903490817e+01
7.144904112009440723e+03 1.000000000000000000e+02
8.353142288698109041e+03 1.778279410038922776e+02
1.000000000000000000e+04 3.162277660168379612e+02
