# Temperature (K), Pressure (bars)
9.722229603521648187e+02 3.162277660168379394e-04
1.030012399922420627e+03 5.623413251903490971e-04
1.087801841003499476e+03 1.000000000000000021e-03
1.143596105047054380e+03 1.778279410038922752e-03
1.198845634691167334e+03 3.162277660168379394e-03
1.255316729335861055e+03 5.623413251903490971e-03
1.315676769719635786e+03 1.000000000000000021e-02
1.385832607150250169e+03 1.778279410038922925e-02
1.472584161791532779e+03 3.162277660168379134e-02
1.579202314531573165e+03 5.623413251903491145e-02
1.708119765379990667e+03 1.000000000000000056e-01
1.863195040068649632e+03 1.778279410038922925e-01
2.065620198976050688e+03 3.162277660168379412e-01
2.316517209023750183e+03 5.623413251903490728e-01
2.566674906729070699e+03 1.000000000000000000e+00
2.796216795939245912e+03 1.778279410038922759e+00
3.020002426213175113e+03 3.162277660168379523e+00
3.244973814826301350e+03 5.623413251903491172e+00
3.477162740583980849e+03 1.000000000000000000e+01
3.722675348267701338e+03 1.778279410038922848e+01
3.989545890885714925e+03 3.162277660168379256e+01
4.282782682081469829e+03 5.623413251903490817e+01
4.609340424632087888e+03 1.000000000000000000e+02
4.972495325859164950e+03 1.778279410038922776e+02
5.392945205022821028e+03 3.162277660168379612e+02
