# Temperature (K), Pressure (bars)
1.150451422820940252e+03 1.000000000000000082e-05
1.203923851109276939e+03 1.778279410038922901e-05
1.257396293139363706e+03 3.162277660168379530e-05
1.390649868053865021e+03 5.623413251903490700e-05
1.512779377773291799e+03 1.000000000000000048e-04
1.578791309372216574e+03 1.778279410038922698e-04
1.630128810234334878e+03 3.162277660168379394e-04
1.677341097644475440e+03 5.623413251903490971e-04
1.721942685838547959e+03 1.000000000000000021e-03
1.771198147669513901e+03 1.778279410038922752e-03
1.814612340096635080e+03 3.162277660168379394e-03
1.846682114797353506e+03 5.623413251903490971e-03
1.876934482131901405e+03 1.000000000000000021e-02
1.909309781030747899e+03 1.778279410038922925e-02
1.946082140105660756e+03 3.162277660168379134e-02
1.988715896446106854e+03 5.623413251903491145e-02
2.047766715979248147e+03 1.000000000000000056e-01
2.118965704369839841e+03 1.778279410038922925e-01
2.234952317455433786e+03 3.162277660168379412e-01
2.446452209099367792e+03 5.623413251903490728e-01
2.686342619937813652e+03 1.000000000000000000e+00
2.903955959755734057e+03 1.778279410038922759e+00
3.120807112205883641e+03 3.162277660168379523e+00
3.342684371997248491e+03 5.623413251903491172e+00
3.574313980517554228e+03 1.000000000000000000e+01
3.821295367577848992e+03 1.778279410038922848e+01
4.091175083546293990e+03 3.162277660168379256e+01
4.389740187458436594e+03 5.623413251903490817e+01
4.724333083707214428e+03 1.000000000000000000e+02
5.098157606576616672e+03 1.778279410038922776e+02
5.534023259895696356e+03 3.162277660168379612e+02
