# Temperature (K), Pressure (bars)
2.255682131957453294e+03 1.778279410038922901e-06
2.260942986811552601e+03 3.162277660168379191e-06
2.266203850920845071e+03 5.623413251903491208e-06
2.288533006019433742e+03 1.000000000000000082e-05
2.321577093647511447e+03 1.778279410038922901e-05
2.358860452434729268e+03 3.162277660168379530e-05
2.402756474812080342e+03 5.623413251903490700e-05
2.455123902142020597e+03 1.000000000000000048e-04
2.515200330433900945e+03 1.778279410038922698e-04
2.582328894252424561e+03 3.162277660168379394e-04
2.656063733748324921e+03 5.623413251903490971e-04
2.735038291429136279e+03 1.000000000000000021e-03
2.817314019251031368e+03 1.778279410038922752e-03
2.899189730435925412e+03 3.162277660168379394e-03
2.976036202187121944e+03 5.623413251903490971e-03
3.045612143738941541e+03 1.000000000000000021e-02
3.108496232023446282e+03 1.778279410038922925e-02
3.170400606921576582e+03 3.162277660168379134e-02
3.229016860980436377e+03 5.623413251903491145e-02
3.317612075909537907e+03 1.000000000000000056e-01
3.484597025766061961e+03 1.778279410038922925e-01
3.703003873625630149e+03 3.162277660168379412e-01
3.964215079511380736e+03 5.623413251903490728e-01
4.245085770005915037e+03 1.000000000000000000e+00
4.596698936668213719e+03 1.778279410038922759e+00
5.071681574314981845e+03 3.162277660168379523e+00
5.785867982317902715e+03 5.623413251903491172e+00
6.922357589454368281e+03 1.000000000000000000e+01
8.507649805404338622e+03 1.778279410038922848e+01
1.000000000000000000e+04 3.162277660168379256e+01
1.000000000000000000e+04 5.623413251903490817e+01
1.000000000000000000e+04 1.000000000000000000e+02
1.000000000000000000e+04 1.778279410038922776e+02
1.000000000000000000e+04 3.162277660168379612e+02
