# Temperature (K), Pressure (bars)
1.255882243336114925e+03 9.999999999999999547e-07
1.297369035105743478e+03 1.778279410038922901e-06
1.338855826881263965e+03 3.162277660168379191e-06
1.381747980199091216e+03 5.623413251903491208e-06
1.434372633380928164e+03 1.000000000000000082e-05
1.509573346018385109e+03 1.778279410038922901e-05
1.584108686146485070e+03 3.162277660168379530e-05
1.642477961444677931e+03 5.623413251903490700e-05
1.695826043189859547e+03 1.000000000000000048e-04
1.749699397055209374e+03 1.778279410038922698e-04
1.807900673183230538e+03 3.162277660168379394e-04
1.869325951014345719e+03 5.623413251903490971e-04
1.933259156939603827e+03 1.000000000000000021e-03
2.002888485123632108e+03 1.778279410038922752e-03
2.083873077508460483e+03 3.162277660168379394e-03
2.188721002206055800e+03 5.623413251903490971e-03
2.318226467610314103e+03 1.000000000000000021e-02
2.457915305820137291e+03 1.778279410038922925e-02
2.601353862246372046e+03 3.162277660168379134e-02
2.750876413721218341e+03 5.623413251903491145e-02
2.908655993469246823e+03 1.000000000000000056e-01
3.076617721910732143e+03 1.778279410038922925e-01
3.255585342317679078e+03 3.162277660168379412e-01
3.445798232365019430e+03 5.623413251903490728e-01
3.649077647348702612e+03 1.000000000000000000e+00
3.869720092657967598e+03 1.778279410038922759e+00
4.113888675792808499e+03 3.162277660168379523e+00
4.389511605879074523e+03 5.623413251903491172e+00
4.707303219607671053e+03 1.000000000000000000e+01
5.082996670839472245e+03 1.778279410038922848e+01
5.540443421450061578e+03 3.162277660168379256e+01
6.117790716186456848e+03 5.623413251903490817e+01
6.882125679632477841e+03 1.000000000000000000e+02
7.947272318300723782e+03 1.778279410038922776e+02
9.448532950808785245e+03 3.162277660168379612e+02
