# Temperature (K), Pressure (bars)
1.865599171555479643e+03 1.000000000000000082e-05
1.870219283597347385e+03 1.778279410038922901e-05
1.875841554743414690e+03 3.162277660168379530e-05
1.883991070582388147e+03 5.623413251903490700e-05
1.896443195326440218e+03 1.000000000000000048e-04
1.914440793618268117e+03 1.778279410038922698e-04
1.937742109110686215e+03 3.162277660168379394e-04
1.966418879032289396e+03 5.623413251903490971e-04
2.001555330626531031e+03 1.000000000000000021e-03
2.042830201397968494e+03 1.778279410038922752e-03
2.088640545148319688e+03 3.162277660168379394e-03
2.138578560202904555e+03 5.623413251903490971e-03
2.192356355792354861e+03 1.000000000000000021e-02
2.252213457422277315e+03 1.778279410038922925e-02
2.318877824446303748e+03 3.162277660168379134e-02
2.402433902499331907e+03 5.623413251903491145e-02
2.524598522648413564e+03 1.000000000000000056e-01
2.678160948708054093e+03 1.778279410038922925e-01
2.840819440289839804e+03 3.162277660168379412e-01
3.009706029882101120e+03 5.623413251903490728e-01
3.189187976348912343e+03 1.000000000000000000e+00
3.381939305663007872e+03 1.778279410038922759e+00
3.589735164652878666e+03 3.162277660168379523e+00
3.814617922312156225e+03 5.623413251903491172e+00
4.060341754451789257e+03 1.000000000000000000e+01
4.332528212818513566e+03 1.778279410038922848e+01
4.638461109725316419e+03 3.162277660168379256e+01
4.987914906477720251e+03 5.623413251903490817e+01
5.397896803737386108e+03 1.000000000000000000e+02
5.882569976457438315e+03 1.778279410038922776e+02
6.467445494842037988e+03 3.162277660168379612e+02
