# Temperature (K), Pressure (bars)
1.921314011998815658e+03 5.623413251903491208e-06
1.924709218356740621e+03 1.000000000000000082e-05
1.928104428695238994e+03 1.778279410038922901e-05
1.940408565434466027e+03 3.162277660168379530e-05
1.961493422335789319e+03 5.623413251903490700e-05
1.991620838805790072e+03 1.000000000000000048e-04
2.033136605770138203e+03 1.778279410038922698e-04
2.084134632485108341e+03 3.162277660168379394e-04
2.141810360565847532e+03 5.623413251903490971e-04
2.203351248029180169e+03 1.000000000000000021e-03
2.265918270426175241e+03 1.778279410038922752e-03
2.328234757319115033e+03 3.162277660168379394e-03
2.388057198092380077e+03 5.623413251903490971e-03
2.444552439699040406e+03 1.000000000000000021e-02
2.500405214557489217e+03 1.778279410038922925e-02
2.563429712253516300e+03 3.162277660168379134e-02
2.656605558265838681e+03 5.623413251903491145e-02
2.788869967883498248e+03 1.000000000000000056e-01
2.936756829865726104e+03 1.778279410038922925e-01
3.091197774014795414e+03 3.162277660168379412e-01
3.260426263421703425e+03 5.623413251903490728e-01
3.447243471890626097e+03 1.000000000000000000e+00
3.652721067950099041e+03 1.778279410038922759e+00
3.877936245019495345e+03 3.162277660168379523e+00
4.126129632442763977e+03 5.623413251903491172e+00
4.403423162454380872e+03 1.000000000000000000e+01
4.718776440670339070e+03 1.778279410038922848e+01
5.085454890045876709e+03 3.162277660168379256e+01
5.521099403159045323e+03 5.623413251903490817e+01
6.051847991004387950e+03 1.000000000000000000e+02
6.718716614387105437e+03 1.778279410038922776e+02
7.588132295164864445e+03 3.162277660168379612e+02
