# Temperature (K), Pressure (bars)
1.648180498674882756e+03 1.778279410038922901e-06
1.664811667819709328e+03 3.162277660168379191e-06
1.682018945581309936e+03 5.623413251903491208e-06
1.706832645402490925e+03 1.000000000000000082e-05
1.738770362703477076e+03 1.778279410038922901e-05
1.777379164294905422e+03 3.162277660168379530e-05
1.824918678695011067e+03 5.623413251903490700e-05
1.879847717020689288e+03 1.000000000000000048e-04
1.940210988336771152e+03 1.778279410038922698e-04
2.005654895538597430e+03 3.162277660168379394e-04
2.075403919660298925e+03 5.623413251903490971e-04
2.151108771516005618e+03 1.000000000000000021e-03
2.239837245002650889e+03 1.778279410038922752e-03
2.344388644277407366e+03 3.162277660168379394e-03
2.458698687045459337e+03 5.623413251903490971e-03
2.579487294021393609e+03 1.000000000000000021e-02
2.708010367104044235e+03 1.778279410038922925e-02
2.845680353406811719e+03 3.162277660168379134e-02
2.994142500039924926e+03 5.623413251903491145e-02
3.155571984556723692e+03 1.000000000000000056e-01
3.332958986958144123e+03 1.778279410038922925e-01
3.529994231335328550e+03 3.162277660168379412e-01
3.750737707926385156e+03 5.623413251903490728e-01
4.000737181735436025e+03 1.000000000000000000e+00
4.290339208583640357e+03 1.778279410038922759e+00
4.618260124433655619e+03 3.162277660168379523e+00
5.031119849737939148e+03 5.623413251903491172e+00
5.585583385795059257e+03 1.000000000000000000e+01
6.384617241437963457e+03 1.778279410038922848e+01
7.573190486794400385e+03 3.162277660168379256e+01
9.245472860213743843e+03 5.623413251903490817e+01
1.128036597479343982e+04 1.000000000000000000e+02
1.373068449310949291e+04 1.778279410038922776e+02
1.665126761096608971e+04 3.162277660168379612e+02
