# Temperature (K), Pressure (bars)
8.240313989610127692e+02 3.162277660168379394e-04
8.741617474183542527e+02 5.623413251903490971e-04
9.242920970185160741e+02 1.000000000000000021e-03
9.726631804263448657e+02 1.778279410038922752e-03
1.020746309954488197e+03 3.162277660168379394e-03
1.070075854915743776e+03 5.623413251903490971e-03
1.123550166858655984e+03 1.000000000000000021e-02
1.184701784514099700e+03 1.778279410038922925e-02
1.260227069926128252e+03 3.162277660168379134e-02
1.355446342392697034e+03 5.623413251903491145e-02
1.499149383117113985e+03 1.000000000000000056e-01
1.720186617229544026e+03 1.778279410038922925e-01
1.982585530234667203e+03 3.162277660168379412e-01
2.245252054331320778e+03 5.623413251903490728e-01
2.497645748380443365e+03 1.000000000000000000e+00
2.735820490711449111e+03 1.778279410038922759e+00
2.964705007698307782e+03 3.162277660168379523e+00
3.191857745480856465e+03 5.623413251903491172e+00
3.424633340845759903e+03 1.000000000000000000e+01
3.669639149280088986e+03 1.778279410038922848e+01
3.935343814036598360e+03 3.162277660168379256e+01
4.226185411941018174e+03 5.623413251903490817e+01
4.548966010814418951e+03 1.000000000000000000e+02
4.907106631694289717e+03 1.778279410038922776e+02
5.319956768858229225e+03 3.162277660168379612e+02
