# Temperature (K), Pressure (bars)
1.519072713240138455e+03 1.778279410038922901e-06
1.535157639572754533e+03 3.162277660168379191e-06
1.563578723365762016e+03 5.623413251903491208e-06
1.605928546973624407e+03 1.000000000000000082e-05
1.656384547869002517e+03 1.778279410038922901e-05
1.715555446767227750e+03 3.162277660168379530e-05
1.785426095831938483e+03 5.623413251903490700e-05
1.852925868297692432e+03 1.000000000000000048e-04
1.908004561442174690e+03 1.778279410038922698e-04
1.953335284920813592e+03 3.162277660168379394e-04
1.992684221251697181e+03 5.623413251903490971e-04
2.028823505091581410e+03 1.000000000000000021e-03
2.063069470934958190e+03 1.778279410038922752e-03
2.097038133825577461e+03 3.162277660168379394e-03
2.132857675541332355e+03 5.623413251903490971e-03
2.173221488670723375e+03 1.000000000000000021e-02
2.219517196296264046e+03 1.778279410038922925e-02
2.277284627732978151e+03 3.162277660168379134e-02
2.345986423528061550e+03 5.623413251903491145e-02
2.443803880584340732e+03 1.000000000000000056e-01
2.596494748098987657e+03 1.778279410038922925e-01
2.772477368391538221e+03 3.162277660168379412e-01
2.947575681290646571e+03 5.623413251903490728e-01
3.131652827217651975e+03 1.000000000000000000e+00
3.326591936387905662e+03 1.778279410038922759e+00
3.533570656376429270e+03 3.162277660168379523e+00
3.755374230306413210e+03 5.623413251903491172e+00
3.996499220276120923e+03 1.000000000000000000e+01
4.262614664445304697e+03 1.778279410038922848e+01
4.560572634245803783e+03 3.162277660168379256e+01
4.899315490455876898e+03 5.623413251903490817e+01
5.294652872450847099e+03 1.000000000000000000e+02
5.758380577064938734e+03 1.778279410038922776e+02
6.312563118161797320e+03 3.162277660168379612e+02
