# Temperature (K), Pressure (bars)
2.109378795435357461e+03 9.999999999999999547e-07
2.155654495875161501e+03 1.778279410038922901e-06
2.201930196314966452e+03 3.162277660168379191e-06
2.247983120938204593e+03 5.623413251903491208e-06
2.293877817232875259e+03 1.000000000000000082e-05
2.338506808002152411e+03 1.778279410038922901e-05
2.379846984146688101e+03 3.162277660168379530e-05
2.417217002050349947e+03 5.623413251903490700e-05
2.451555004830368034e+03 1.000000000000000048e-04
2.484622817675799524e+03 1.778279410038922698e-04
2.518892406161934559e+03 3.162277660168379394e-04
2.557030791001831403e+03 5.623413251903490971e-04
2.601328859721671961e+03 1.000000000000000021e-03
2.653765772765207657e+03 1.778279410038922752e-03
2.716287058223620534e+03 3.162277660168379394e-03
2.790883012283909011e+03 5.623413251903490971e-03
2.878609557006780960e+03 1.000000000000000021e-02
2.985328743180076344e+03 1.778279410038922925e-02
3.120328932710596746e+03 3.162277660168379134e-02
3.288828115680649717e+03 5.623413251903491145e-02
3.474145168895908682e+03 1.000000000000000056e-01
3.696420785424928908e+03 1.778279410038922925e-01
3.957531915475190544e+03 3.162277660168379412e-01
4.275312576861442722e+03 5.623413251903490728e-01
4.715807032628520574e+03 1.000000000000000000e+00
5.387667296328706470e+03 1.778279410038922759e+00
6.400781329097463640e+03 3.162277660168379523e+00
7.873520570361628415e+03 5.623413251903491172e+00
9.586957084571278756e+03 1.000000000000000000e+01
1.000000000000000000e+04 1.778279410038922848e+01
1.000000000000000000e+04 3.162277660168379256e+01
1.000000000000000000e+04 5.623413251903490817e+01
1.000000000000000000e+04 1.000000000000000000e+02
1.000000000000000000e+04 1.778279410038922776e+02
1.000000000000000000e+04 3.162277660168379612e+02
