# Temperature (K), Pressure (bars)
1.903430960052825640e+03 9.999999999999999547e-07
1.947508641868179438e+03 1.778279410038922901e-06
1.991586323683533692e+03 3.162277660168379191e-06
2.036918950014762231e+03 5.623413251903491208e-06
2.079599251602961886e+03 1.000000000000000082e-05
2.117374447804301781e+03 1.778279410038922901e-05
2.152259149548471669e+03 3.162277660168379530e-05
2.187218829962316704e+03 5.623413251903490700e-05
2.224936135474481489e+03 1.000000000000000048e-04
2.267819192081570236e+03 1.778279410038922698e-04
2.317819645396686155e+03 3.162277660168379394e-04
2.376427024338090177e+03 5.623413251903490971e-04
2.444924492064442347e+03 1.000000000000000021e-03
2.524845342076747329e+03 1.778279410038922752e-03
2.617227712804289695e+03 3.162277660168379394e-03
2.721140108981756384e+03 5.623413251903490971e-03
2.836153895658810598e+03 1.000000000000000021e-02
2.965227786770123657e+03 1.778279410038922925e-02
3.114222062409809041e+03 3.162277660168379134e-02
3.293885940851124360e+03 5.623413251903491145e-02
3.482587575982615817e+03 1.000000000000000056e-01
3.707635195249064509e+03 1.778279410038922925e-01
3.958946911129567980e+03 3.162277660168379412e-01
4.278989946366191361e+03 5.623413251903490728e-01
4.727756063373064535e+03 1.000000000000000000e+00
5.438839969823349747e+03 1.778279410038922759e+00
6.579848841158640425e+03 3.162277660168379523e+00
8.133161659819099441e+03 5.623413251903491172e+00
9.846053651798220017e+03 1.000000000000000000e+01
1.000000000000000000e+04 1.778279410038922848e+01
1.000000000000000000e+04 3.162277660168379256e+01
1.000000000000000000e+04 5.623413251903490817e+01
1.000000000000000000e+04 1.000000000000000000e+02
1.000000000000000000e+04 1.778279410038922776e+02
1.000000000000000000e+04 3.162277660168379612e+02
