# Temperature (K), Pressure (bars)
2.328218938312714272e+03 9.999999999999999547e-07
2.352534491267556405e+03 1.778279410038922901e-06
2.376850044222398537e+03 3.162277660168379191e-06
2.405225459989803312e+03 5.623413251903491208e-06
2.435570413441634628e+03 1.000000000000000082e-05
2.466601233361723644e+03 1.778279410038922901e-05
2.497497803169204872e+03 3.162277660168379530e-05
2.525368736204994548e+03 5.623413251903490700e-05
2.546069061957749000e+03 1.000000000000000048e-04
2.555284088165328285e+03 1.778279410038922698e-04
2.558486500837898348e+03 3.162277660168379394e-04
2.572483317399638963e+03 5.623413251903490971e-04
2.608406551933138871e+03 1.000000000000000021e-03
2.664477334684855123e+03 1.778279410038922752e-03
2.735633841639035381e+03 3.162277660168379394e-03
2.819392223175080744e+03 5.623413251903490971e-03
2.914362463499132900e+03 1.000000000000000021e-02
3.019109589331289499e+03 1.778279410038922925e-02
3.140590156536800350e+03 3.162277660168379134e-02
3.292128835131357846e+03 5.623413251903491145e-02
3.481623170247680719e+03 1.000000000000000056e-01
3.733812227985636127e+03 1.778279410038922925e-01
3.992897005984633779e+03 3.162277660168379412e-01
4.329052938963655834e+03 5.623413251903490728e-01
4.817811966128952008e+03 1.000000000000000000e+00
5.628474626818954675e+03 1.778279410038922759e+00
6.904752155224089620e+03 3.162277660168379523e+00
8.516944337351469585e+03 5.623413251903491172e+00
1.024599732254862283e+04 1.000000000000000000e+01
1.221294242375304384e+04 1.778279410038922848e+01
1.469643218586339208e+04 3.162277660168379256e+01
1.780966130383511336e+04 5.623413251903490817e+01
2.167246169810386709e+04 1.000000000000000000e+02
2.638840542610103148e+04 1.778279410038922776e+02
3.201295942737669247e+04 3.162277660168379612e+02
