# Temperature (K), Pressure (bars)
8.069303890267484576e+02 3.162277660168379394e-04
8.555813996056607493e+02 5.623413251903490971e-04
9.042324117789405591e+02 1.000000000000000021e-03
9.512201017919301194e+02 1.778279410038922752e-03
9.977899558468099031e+02 3.162277660168379394e-03
1.044907080624812579e+03 5.623413251903490971e-03
1.093368625323203560e+03 1.000000000000000021e-02
1.145482946381423972e+03 1.778279410038922925e-02
1.205029915189142457e+03 3.162277660168379134e-02
1.276969232770655253e+03 5.623413251903491145e-02
1.368351402018153067e+03 1.000000000000000056e-01
1.491164314467194117e+03 1.778279410038922925e-01
1.676485735705517982e+03 3.162277660168379412e-01
1.931443401036779960e+03 5.623413251903490728e-01
2.207476390288087714e+03 1.000000000000000000e+00
2.473291010367211584e+03 1.778279410038922759e+00
2.729010441446097047e+03 3.162277660168379523e+00
2.976450347241408963e+03 5.623413251903491172e+00
3.221964057122724626e+03 1.000000000000000000e+01
3.473025872272606193e+03 1.778279410038922848e+01
3.738679441513151232e+03 3.162277660168379256e+01
4.024442854157128750e+03 5.623413251903490817e+01
4.337061136918264310e+03 1.000000000000000000e+02
4.679613076604723574e+03 1.778279410038922776e+02
5.070047049469555532e+03 3.162277660168379612e+02
