# Temperature (K), Pressure (bars)
1.044396757655626971e+03 5.623413251903490971e-04
1.086750055559751672e+03 1.000000000000000021e-03
1.129103355457651787e+03 1.778279410038922752e-03
1.171412564854283801e+03 3.162277660168379394e-03
1.215676067241292685e+03 5.623413251903490971e-03
1.262170945376284408e+03 1.000000000000000021e-02
1.311458717825251824e+03 1.778279410038922925e-02
1.365359017264511522e+03 3.162277660168379134e-02
1.428641290515818582e+03 5.623413251903491145e-02
1.502121679988393453e+03 1.000000000000000056e-01
1.589524473271249690e+03 1.778279410038922925e-01
1.699286004845286698e+03 3.162277660168379412e-01
1.830533688843074515e+03 5.623413251903490728e-01
1.974864220921123433e+03 1.000000000000000000e+00
2.157303593067051679e+03 1.778279410038922759e+00
2.409466532554203695e+03 3.162277660168379523e+00
2.688948925141256041e+03 5.623413251903491172e+00
2.958051603164783501e+03 1.000000000000000000e+01
3.225306797126712809e+03 1.778279410038922848e+01
3.498873412933359305e+03 3.162277660168379256e+01
3.785695851785537798e+03 5.623413251903490817e+01
4.093179670977240221e+03 1.000000000000000000e+02
4.425432458947864689e+03 1.778279410038922776e+02
4.797975220043166701e+03 3.162277660168379612e+02
