# Temperature (K), Pressure (bars)
9.893514443295243836e+02 3.162277660168379394e-04
1.022934997704923489e+03 5.623413251903490971e-04
1.056518547960211663e+03 1.000000000000000021e-03
1.082104426544287207e+03 1.778279410038922752e-03
1.102990217426905019e+03 3.162277660168379394e-03
1.123656737643389761e+03 5.623413251903490971e-03
1.145782904549847444e+03 1.000000000000000021e-02
1.171476318742985541e+03 1.778279410038922925e-02
1.202813750314161780e+03 3.162277660168379134e-02
1.241398563817665490e+03 5.623413251903491145e-02
1.290680542619325252e+03 1.000000000000000056e-01
1.352515975249228632e+03 1.778279410038922925e-01
1.426905447552209580e+03 3.162277660168379412e-01
1.526961014439809105e+03 5.623413251903490728e-01
1.657251632292233126e+03 1.000000000000000000e+00
1.838822889515168754e+03 1.778279410038922759e+00
2.099316554716183873e+03 3.162277660168379523e+00
2.395021651488842508e+03 5.623413251903491172e+00
2.685386815770772955e+03 1.000000000000000000e+01
2.972219122507538032e+03 1.778279410038922848e+01
3.259991835443623586e+03 3.162277660168379256e+01
3.553916975059180913e+03 5.623413251903490817e+01
3.862019234992166275e+03 1.000000000000000000e+02
4.189229568041853781e+03 1.778279410038922776e+02
4.550190282465506243e+03 3.162277660168379612e+02
