# Temperature (K), Pressure (bars)
2.017256230310648334e+03 9.999999999999999547e-07
2.037281994911139464e+03 1.778279410038922901e-06
2.057307759511630593e+03 3.162277660168379191e-06
2.083896604337569897e+03 5.623413251903491208e-06
2.117452506505804649e+03 1.000000000000000082e-05
2.156358476233222973e+03 1.778279410038922901e-05
2.197898449889998574e+03 3.162277660168379530e-05
2.238781330767114923e+03 5.623413251903490700e-05
2.277162712667800406e+03 1.000000000000000048e-04
2.312329050142606320e+03 1.778279410038922698e-04
2.344171288557337448e+03 3.162277660168379394e-04
2.373504900048628770e+03 5.623413251903490971e-04
2.402078452628435116e+03 1.000000000000000021e-03
2.431808972467641524e+03 1.778279410038922752e-03
2.465074666320370397e+03 3.162277660168379394e-03
2.503801116020388690e+03 5.623413251903490971e-03
2.551947709897351615e+03 1.000000000000000021e-02
2.610561997947699183e+03 1.778279410038922925e-02
2.692946803460723004e+03 3.162277660168379134e-02
2.814523479671568111e+03 5.623413251903491145e-02
2.957423114617280135e+03 1.000000000000000056e-01
3.110374862454608774e+03 1.778279410038922925e-01
3.280805184454654864e+03 3.162277660168379412e-01
3.469981146840519614e+03 5.623413251903490728e-01
3.678118405600577262e+03 1.000000000000000000e+00
3.906860228354498759e+03 1.778279410038922759e+00
4.161033262885829572e+03 3.162277660168379523e+00
4.449047897647664286e+03 5.623413251903491172e+00
4.783287931599024887e+03 1.000000000000000000e+01
5.179328527691224735e+03 1.778279410038922848e+01
5.668922985096620323e+03 3.162277660168379256e+01
6.300055261754680032e+03 5.623413251903490817e+01
7.159071531415031131e+03 1.000000000000000000e+02
8.385496917097912956e+03 1.778279410038922776e+02
1.000000000000000000e+04 3.162277660168379612e+02
