# Temperature (K), Pressure (bars)
9.858012738980614813e+02 5.623413251903490971e-04
1.035053549401358396e+03 1.000000000000000021e-03
1.084305825425117519e+03 1.778279410038922752e-03
1.129832502389557476e+03 3.162277660168379394e-03
1.172878040993756485e+03 5.623413251903490971e-03
1.217512932288713273e+03 1.000000000000000021e-02
1.265679429988460242e+03 1.778279410038922925e-02
1.319736781316941688e+03 3.162277660168379134e-02
1.384737884501294502e+03 5.623413251903491145e-02
1.473070005244295999e+03 1.000000000000000056e-01
1.593259109203215303e+03 1.778279410038922925e-01
1.744225854452719886e+03 3.162277660168379412e-01
1.912979435967680956e+03 5.623413251903490728e-01
2.109882792299933953e+03 1.000000000000000000e+00
2.360418884547711514e+03 1.778279410038922759e+00
2.629717581561767020e+03 3.162277660168379523e+00
2.886291098496337781e+03 5.623413251903491172e+00
3.139201319566358507e+03 1.000000000000000000e+01
3.395216454868575056e+03 1.778279410038922848e+01
3.662676045071595581e+03 3.162277660168379256e+01
3.948100357760673887e+03 5.623413251903490817e+01
4.258456363728601900e+03 1.000000000000000000e+02
4.597047135071778939e+03 1.778279410038922776e+02
4.980995972781674936e+03 3.162277660168379612e+02
