# Temperature (K), Pressure (bars)
2.355592245113251465e+03 9.999999999999999547e-07
2.379014009861753038e+03 1.778279410038922901e-06
2.402435774610253702e+03 3.162277660168379191e-06
2.430605063498497657e+03 5.623413251903491208e-06
2.461232032194233398e+03 1.000000000000000082e-05
2.492263021478666815e+03 1.778279410038922901e-05
2.525457825504730863e+03 3.162277660168379530e-05
2.561155342736261446e+03 5.623413251903490700e-05
2.598758493325528889e+03 1.000000000000000048e-04
2.637238751888163279e+03 1.778279410038922698e-04
2.673039359320038329e+03 3.162277660168379394e-04
2.700397666018221571e+03 5.623413251903490971e-04
2.718170771776849961e+03 1.000000000000000021e-03
2.737118259521725577e+03 1.778279410038922752e-03
2.772401695548931457e+03 3.162277660168379394e-03
2.827786792812906242e+03 5.623413251903490971e-03
2.898066482557100244e+03 1.000000000000000021e-02
2.970333472170307687e+03 1.778279410038922925e-02
3.049467536166167520e+03 3.162277660168379134e-02
3.166243032592294185e+03 5.623413251903491145e-02
3.323310144263521579e+03 1.000000000000000056e-01
3.511296999546024381e+03 1.778279410038922925e-01
3.719705699834642019e+03 3.162277660168379412e-01
3.966682388290103972e+03 5.623413251903490728e-01
4.246530346660222676e+03 1.000000000000000000e+00
4.597799196006173588e+03 1.778279410038922759e+00
5.073397513936619362e+03 3.162277660168379523e+00
5.791860040336621751e+03 5.623413251903491172e+00
6.936871507761009525e+03 1.000000000000000000e+01
8.528860087475251930e+03 1.778279410038922848e+01
1.000000000000000000e+04 3.162277660168379256e+01
1.000000000000000000e+04 5.623413251903490817e+01
1.000000000000000000e+04 1.000000000000000000e+02
1.000000000000000000e+04 1.778279410038922776e+02
1.000000000000000000e+04 3.162277660168379612e+02
