# Temperature (K), Pressure (bars)
1.865664316517800671e+03 9.999999999999999547e-07
1.873045661296243225e+03 1.778279410038922901e-06
1.880427006075944064e+03 3.162277660168379191e-06
1.894602301894488164e+03 5.623413251903491208e-06
1.917145961198361647e+03 1.000000000000000082e-05
1.945414042090776775e+03 1.778279410038922901e-05
1.977363943520316752e+03 3.162277660168379530e-05
2.013300836063570841e+03 5.623413251903490700e-05
2.050997827681073886e+03 1.000000000000000048e-04
2.087495799336639720e+03 1.778279410038922698e-04
2.123402059479910804e+03 3.162277660168379394e-04
2.160561012982226202e+03 5.623413251903490971e-04
2.200549982086252385e+03 1.000000000000000021e-03
2.244507756686658013e+03 1.778279410038922752e-03
2.294900254458540985e+03 3.162277660168379394e-03
2.352748224190439032e+03 5.623413251903490971e-03
2.424397729582550255e+03 1.000000000000000021e-02
2.522145950629751496e+03 1.778279410038922925e-02
2.641981892553737453e+03 3.162277660168379134e-02
2.773152393721843055e+03 5.623413251903491145e-02
2.914618848840871578e+03 1.000000000000000056e-01
3.068413485107874294e+03 1.778279410038922925e-01
3.236825438932725774e+03 3.162277660168379412e-01
3.421605836333077150e+03 5.623413251903490728e-01
3.623673830608435310e+03 1.000000000000000000e+00
3.844653714751531879e+03 1.778279410038922759e+00
4.088687470058858707e+03 3.162277660168379523e+00
4.362799626975711362e+03 5.623413251903491172e+00
4.677096807822848859e+03 1.000000000000000000e+01
5.045410324246329765e+03 1.778279410038922848e+01
5.491236535505300708e+03 3.162277660168379256e+01
6.049347084004981298e+03 5.623413251903490817e+01
6.779940038480077419e+03 1.000000000000000000e+02
7.785936208744293253e+03 1.778279410038922776e+02
9.204066157833212856e+03 3.162277660168379612e+02
