# Temperature (K), Pressure (bars)
1.568597426161084513e+03 9.999999999999999547e-07
1.613853804665115604e+03 1.778279410038922901e-06
1.659110183174197118e+03 3.162277660168379191e-06
1.714578601147909239e+03 5.623413251903491208e-06
1.784990847535779722e+03 1.000000000000000082e-05
1.857407519968134238e+03 1.778279410038922901e-05
1.920412159196616358e+03 3.162277660168379530e-05
1.973361844475381986e+03 5.623413251903490700e-05
2.018509305157112976e+03 1.000000000000000048e-04
2.057959968144032246e+03 1.778279410038922698e-04
2.093540938062403256e+03 3.162277660168379394e-04
2.127925798610493075e+03 5.623413251903490971e-04
2.163398916538801132e+03 1.000000000000000021e-03
2.201852837657012515e+03 1.778279410038922752e-03
2.245120514474841912e+03 3.162277660168379394e-03
2.296277394920889947e+03 5.623413251903490971e-03
2.357441905185646647e+03 1.000000000000000021e-02
2.435341526165623691e+03 1.778279410038922925e-02
2.541012236015580129e+03 3.162277660168379134e-02
2.670098329935696256e+03 5.623413251903491145e-02
2.811496341677527653e+03 1.000000000000000056e-01
2.963723020324379831e+03 1.778279410038922925e-01
3.128942309240516352e+03 3.162277660168379412e-01
3.308577967483175598e+03 5.623413251903490728e-01
3.503058623675502531e+03 1.000000000000000000e+00
3.713294155310973110e+03 1.778279410038922759e+00
3.942342756380063292e+03 3.162277660168379523e+00
4.195609295192532045e+03 5.623413251903491172e+00
4.480575710549319410e+03 1.000000000000000000e+01
4.807251333233927653e+03 1.778279410038922848e+01
5.191387139330266109e+03 3.162277660168379256e+01
5.651540316873340998e+03 5.623413251903490817e+01
6.216274882728016564e+03 1.000000000000000000e+02
6.930539472116703109e+03 1.778279410038922776e+02
7.868453792446095576e+03 3.162277660168379612e+02
