# Temperature (K), Pressure (bars)
2.346060160263246416e+03 9.999999999999999547e-07
2.370668443962178571e+03 1.778279410038922901e-06
2.395276727661110272e+03 3.162277660168379191e-06
2.421801611112563478e+03 5.623413251903491208e-06
2.450213779604701358e+03 1.000000000000000082e-05
2.480015103630478734e+03 1.778279410038922901e-05
2.510480305178972685e+03 3.162277660168379530e-05
2.540593342134961404e+03 5.623413251903490700e-05
2.568818157617648922e+03 1.000000000000000048e-04
2.592881231244043192e+03 1.778279410038922698e-04
2.611318000565665443e+03 3.162277660168379394e-04
2.626508566182450522e+03 5.623413251903490971e-04
2.645482374004875510e+03 1.000000000000000021e-03
2.675778258943999390e+03 1.778279410038922752e-03
2.720881522375248096e+03 3.162277660168379394e-03
2.781701442733232852e+03 5.623413251903490971e-03
2.858453004234310356e+03 1.000000000000000021e-02
2.954351658417885119e+03 1.778279410038922925e-02
3.074997622447591311e+03 3.162277660168379134e-02
3.219560568764811251e+03 5.623413251903491145e-02
3.387412353366499246e+03 1.000000000000000056e-01
3.586859754025683287e+03 1.778279410038922925e-01
3.811786155086633698e+03 3.162277660168379412e-01
4.086498306860521552e+03 5.623413251903490728e-01
4.413431966161597302e+03 1.000000000000000000e+00
4.857909902912109828e+03 1.778279410038922759e+00
5.533160297878873280e+03 3.162277660168379523e+00
6.613012153777860476e+03 5.623413251903491172e+00
8.148375878854633811e+03 1.000000000000000000e+01
9.920589246425297461e+03 1.778279410038922848e+01
1.000000000000000000e+04 3.162277660168379256e+01
1.000000000000000000e+04 5.623413251903490817e+01
1.000000000000000000e+04 1.000000000000000000e+02
1.000000000000000000e+04 1.778279410038922776e+02
1.000000000000000000e+04 3.162277660168379612e+02
