# Temperature (K), Pressure (bars)
7.770808750371559199e+02 3.162277660168379394e-04
8.171564523183234314e+02 5.623413251903490971e-04
8.572320304037338019e+02 1.000000000000000021e-03
8.972121178949516889e+02 1.778279410038922752e-03
9.374584410337623694e+02 3.162277660168379394e-03
9.786710272735622311e+02 5.623413251903490971e-03
1.021694305529439703e+03 1.000000000000000021e-02
1.069249857616287727e+03 1.778279410038922925e-02
1.125050676654309427e+03 3.162277660168379134e-02
1.197072075145159715e+03 5.623413251903491145e-02
1.288807621993266139e+03 1.000000000000000056e-01
1.426610199087206638e+03 1.778279410038922925e-01
1.642448976456824767e+03 3.162277660168379412e-01
1.904291750163274401e+03 5.623413251903490728e-01
2.175299953547235418e+03 1.000000000000000000e+00
2.445096543351525725e+03 1.778279410038922759e+00
2.704183470950700666e+03 3.162277660168379523e+00
2.953713780393821708e+03 5.623413251903491172e+00
3.200293505342482149e+03 1.000000000000000000e+01
3.451843668562871244e+03 1.778279410038922848e+01
3.717758961673383055e+03 3.162277660168379256e+01
4.003333757910528675e+03 5.623413251903490817e+01
4.315259558223426211e+03 1.000000000000000000e+02
4.656684887127275033e+03 1.778279410038922776e+02
5.045263520549776331e+03 3.162277660168379612e+02
