# Temperature (K), Pressure (bars)
2.237014480986064427e+03 9.999999999999999547e-07
2.262864648278571622e+03 1.778279410038922901e-06
2.288714815571078361e+03 3.162277660168379191e-06
2.318580958378500782e+03 5.623413251903491208e-06
2.351651029859002847e+03 1.000000000000000082e-05
2.385595269941157767e+03 1.778279410038922901e-05
2.418339984034832923e+03 3.162277660168379530e-05
2.447881086834727284e+03 5.623413251903490700e-05
2.473323554471694479e+03 1.000000000000000048e-04
2.495986678167977971e+03 1.778279410038922698e-04
2.519641050949148394e+03 3.162277660168379394e-04
2.548927141695751288e+03 5.623413251903490971e-04
2.587656195792323160e+03 1.000000000000000021e-03
2.638034531047392647e+03 1.778279410038922752e-03
2.701535136883882387e+03 3.162277660168379394e-03
2.779549434434986324e+03 5.623413251903490971e-03
2.874735753233278047e+03 1.000000000000000021e-02
2.990635956812670429e+03 1.778279410038922925e-02
3.127684257193254325e+03 3.162277660168379134e-02
3.287182835369967506e+03 5.623413251903491145e-02
3.477931431422362039e+03 1.000000000000000056e-01
3.693418134721362549e+03 1.778279410038922925e-01
3.951359822703057944e+03 3.162277660168379412e-01
4.265164196064042699e+03 5.623413251903490728e-01
4.700012696801695711e+03 1.000000000000000000e+00
5.376102576894352751e+03 1.778279410038922759e+00
6.439831758683027147e+03 3.162277660168379523e+00
7.952509906668231451e+03 5.623413251903491172e+00
9.667622668414494910e+03 1.000000000000000000e+01
1.000000000000000000e+04 1.778279410038922848e+01
1.000000000000000000e+04 3.162277660168379256e+01
1.000000000000000000e+04 5.623413251903490817e+01
1.000000000000000000e+04 1.000000000000000000e+02
1.000000000000000000e+04 1.778279410038922776e+02
1.000000000000000000e+04 3.162277660168379612e+02
