# Temperature (K), Pressure (bars)
2.138854468650236413e+03 9.999999999999999547e-07
2.146358199271229751e+03 1.778279410038922901e-06
2.153861929902613610e+03 3.162277660168379191e-06
2.158439961525265062e+03 5.623413251903491208e-06
2.160716857306781094e+03 1.000000000000000082e-05
2.165171698895860573e+03 1.778279410038922901e-05
2.175631394769725375e+03 3.162277660168379530e-05
2.192444474034253290e+03 5.623413251903490700e-05
2.213918405960888776e+03 1.000000000000000048e-04
2.238193147222726111e+03 1.778279410038922698e-04
2.263814963015709964e+03 3.162277660168379394e-04
2.290072248433697496e+03 5.623413251903490971e-04
2.317299840085214782e+03 1.000000000000000021e-03
2.346185013030431946e+03 1.778279410038922752e-03
2.378200063263024731e+03 3.162277660168379394e-03
2.414664554870974825e+03 5.623413251903490971e-03
2.458091350701216470e+03 1.000000000000000021e-02
2.508726796908251345e+03 1.778279410038922925e-02
2.575079702612449182e+03 3.162277660168379134e-02
2.676143620285837642e+03 5.623413251903491145e-02
2.807662748242682028e+03 1.000000000000000056e-01
2.953200006839200796e+03 1.778279410038922925e-01
3.110649265645978630e+03 3.162277660168379412e-01
3.283035385562750434e+03 5.623413251903490728e-01
3.472281546975098081e+03 1.000000000000000000e+00
3.679359510275383855e+03 1.778279410038922759e+00
3.905953550300618190e+03 3.162277660168379523e+00
4.156089297850316143e+03 5.623413251903491172e+00
4.436387134475316998e+03 1.000000000000000000e+01
4.756150169329923301e+03 1.778279410038922848e+01
5.129945175184594518e+03 3.162277660168379256e+01
5.576103757191226578e+03 5.623413251903490817e+01
6.122548320499939109e+03 1.000000000000000000e+02
6.814257040397029414e+03 1.778279410038922776e+02
7.724221951895274287e+03 3.162277660168379612e+02
