# Temperature (K), Pressure (bars)
7.968740393967589171e+02 5.623413251903490971e-04
8.358488794019700663e+02 1.000000000000000021e-03
8.748237202059452784e+02 1.778279410038922752e-03
9.135882801870072853e+02 3.162277660168379394e-03
9.524434999221051612e+02 5.623413251903490971e-03
9.920513100025747235e+02 1.000000000000000021e-02
1.032969821192613153e+03 1.778279410038922925e-02
1.077102628747675453e+03 3.162277660168379134e-02
1.128025968020138180e+03 5.623413251903491145e-02
1.191185729561863354e+03 1.000000000000000056e-01
1.273462417672498532e+03 1.778279410038922925e-01
1.389428331843331080e+03 3.162277660168379412e-01
1.569356997383415091e+03 5.623413251903490728e-01
1.816670882702253266e+03 1.000000000000000000e+00
2.093413352151475465e+03 1.778279410038922759e+00
2.374997119961297813e+03 3.162277660168379523e+00
2.654018472615032806e+03 5.623413251903491172e+00
2.925952920898817865e+03 1.000000000000000000e+01
3.194698083423517346e+03 1.778279410038922848e+01
3.469270154744632691e+03 3.162277660168379256e+01
3.756318068869463787e+03 5.623413251903490817e+01
4.063267421349202777e+03 1.000000000000000000e+02
4.394013789421982437e+03 1.778279410038922776e+02
4.764396260012728817e+03 3.162277660168379612e+02
