# Temperature (K), Pressure (bars)
1.246898820847643265e+03 1.000000000000000082e-05
1.283949521448612359e+03 1.778279410038922901e-05
1.321000235497488575e+03 3.162277660168379530e-05
1.442601749538775721e+03 5.623413251903490700e-05
1.562971733954628235e+03 1.000000000000000048e-04
1.632693534448201717e+03 1.778279410038922698e-04
1.691609497152781159e+03 3.162277660168379394e-04
1.758480106447879734e+03 5.623413251903490971e-04
1.817086628148083946e+03 1.000000000000000021e-03
1.860181150004823394e+03 1.778279410038922752e-03
1.896990428469534436e+03 3.162277660168379394e-03
1.930575685538123253e+03 5.623413251903490971e-03
1.960891612215409623e+03 1.000000000000000021e-02
1.990666117502258203e+03 1.778279410038922925e-02
2.022475537884094138e+03 3.162277660168379134e-02
2.061436204292886941e+03 5.623413251903491145e-02
2.109963316152322932e+03 1.000000000000000056e-01
2.175846937152442479e+03 1.778279410038922925e-01
2.254667774585216193e+03 3.162277660168379412e-01
2.382566897939917908e+03 5.623413251903490728e-01
2.605028506528519756e+03 1.000000000000000000e+00
2.849367150444380968e+03 1.778279410038922759e+00
3.070107061692811385e+03 3.162277660168379523e+00
3.293717583577093137e+03 5.623413251903491172e+00
3.526573135269693466e+03 1.000000000000000000e+01
3.773653043136312590e+03 1.778279410038922848e+01
4.042147671952770907e+03 3.162277660168379256e+01
4.338061507170671575e+03 5.623413251903490817e+01
4.668613640990273780e+03 1.000000000000000000e+02
5.036993772436007021e+03 1.778279410038922776e+02
5.464980018740747255e+03 3.162277660168379612e+02
