# Temperature (K), Pressure (bars)
2.160430221417765551e+03 9.999999999999999547e-07
2.175525261488830438e+03 1.778279410038922901e-06
2.190620301559894870e+03 3.162277660168379191e-06
2.213082398537969766e+03 5.623413251903491208e-06
2.238810369542105491e+03 1.000000000000000082e-05
2.265520547405059460e+03 1.778279410038922901e-05
2.295029473930860604e+03 3.162277660168379530e-05
2.328861425146968941e+03 5.623413251903490700e-05
2.367520847706728546e+03 1.000000000000000048e-04
2.410496118667613246e+03 1.778279410038922698e-04
2.456768560070604053e+03 3.162277660168379394e-04
2.503714168225445974e+03 5.623413251903490971e-04
2.548183924433747961e+03 1.000000000000000021e-03
2.588418638380178436e+03 1.778279410038922752e-03
2.623371615192522313e+03 3.162277660168379394e-03
2.653347278490515691e+03 5.623413251903490971e-03
2.680256462941480549e+03 1.000000000000000021e-02
2.712525876176932798e+03 1.778279410038922925e-02
2.752777909323763652e+03 3.162277660168379134e-02
2.817990687040914963e+03 5.623413251903491145e-02
2.934866019315662925e+03 1.000000000000000056e-01
3.082613267065877608e+03 1.778279410038922925e-01
3.241166990830011855e+03 3.162277660168379412e-01
3.417906672575082666e+03 5.623413251903490728e-01
3.615630179765953926e+03 1.000000000000000000e+00
3.836034768380703554e+03 1.778279410038922759e+00
4.081556543740885900e+03 3.162277660168379523e+00
4.357575505635680202e+03 5.623413251903491172e+00
4.673453205591884398e+03 1.000000000000000000e+01
5.040875172291274794e+03 1.778279410038922848e+01
5.485312609078968308e+03 3.162277660168379256e+01
6.041273255224999957e+03 5.623413251903490817e+01
6.768391095541798677e+03 1.000000000000000000e+02
7.769217517452774700e+03 1.778279410038922776e+02
9.180748014097789564e+03 3.162277660168379612e+02
