# Temperature (K), Pressure (bars)
7.980291595361334203e+02 5.623413251903490971e-04
8.362725852359429837e+02 1.000000000000000021e-03
8.745160121065938483e+02 1.778279410038922752e-03
9.132342764762320257e+02 3.162277660168379394e-03
9.522260850434572603e+02 5.623413251903490971e-03
9.918288713856854883e+02 1.000000000000000021e-02
1.032430304381823817e+03 1.778279410038922925e-02
1.075169502176705009e+03 3.162277660168379134e-02
1.122699712368142173e+03 5.623413251903491145e-02
1.179382862403701893e+03 1.000000000000000056e-01
1.249443060514950275e+03 1.778279410038922925e-01
1.343368662039627679e+03 3.162277660168379412e-01
1.478601101607253440e+03 5.623413251903490728e-01
1.672192668862022629e+03 1.000000000000000000e+00
1.924014981012874159e+03 1.778279410038922759e+00
2.205469892554712715e+03 3.162277660168379523e+00
2.492356563716959045e+03 5.623413251903491172e+00
2.776776267902348991e+03 1.000000000000000000e+01
3.056776293761032321e+03 1.778279410038922848e+01
3.339114749390694669e+03 3.162277660168379256e+01
3.629939042270636492e+03 5.623413251903490817e+01
3.937131433618811570e+03 1.000000000000000000e+02
4.265184484561689715e+03 1.778279410038922776e+02
4.629161894571295306e+03 3.162277660168379612e+02
