# Temperature (K), Pressure (bars)
1.152333073903891545e+03 5.623413251903491208e-06
1.178620459399089668e+03 1.000000000000000082e-05
1.211933260683861590e+03 1.778279410038922901e-05
1.251530838149065858e+03 3.162277660168379530e-05
1.296313144663859021e+03 5.623413251903490700e-05
1.345586437958444549e+03 1.000000000000000048e-04
1.399259121746990331e+03 1.778279410038922698e-04
1.458131134379876130e+03 3.162277660168379394e-04
1.522671576249957980e+03 5.623413251903490971e-04
1.595007291632292208e+03 1.000000000000000021e-03
1.678759954286418633e+03 1.778279410038922752e-03
1.777060092088234342e+03 3.162277660168379394e-03
1.909889146328078823e+03 5.623413251903490971e-03
2.083983716514954722e+03 1.000000000000000021e-02
2.264399273813592117e+03 1.778279410038922925e-02
2.432830454588177872e+03 3.162277660168379134e-02
2.596935308824170988e+03 5.623413251903491145e-02
2.761150653072733348e+03 1.000000000000000056e-01
2.928687545486177896e+03 1.778279410038922925e-01
3.102053216247720229e+03 3.162277660168379412e-01
3.283266353621203962e+03 5.623413251903490728e-01
3.474390370194320894e+03 1.000000000000000000e+00
3.678548063609608562e+03 1.778279410038922759e+00
3.900275885483546062e+03 3.162277660168379523e+00
4.145178341385559179e+03 5.623413251903491172e+00
4.420072660681377783e+03 1.000000000000000000e+01
4.734003897035649970e+03 1.778279410038922848e+01
5.101894287524241008e+03 3.162277660168379256e+01
5.539172282933547649e+03 5.623413251903490817e+01
6.071916030210565623e+03 1.000000000000000000e+02
6.739397879364015353e+03 1.778279410038922776e+02
7.602293224982492575e+03 3.162277660168379612e+02
