# Temperature (K), Pressure (bars)
1.805424797985405348e+03 9.999999999999999547e-07
1.858941356302503436e+03 1.778279410038922901e-06
1.912457914619769099e+03 3.162277660168379191e-06
1.966510501410531560e+03 5.623413251903491208e-06
2.022040639899398229e+03 1.000000000000000082e-05
2.074680087239921704e+03 1.778279410038922901e-05
2.120001617253735276e+03 3.162277660168379530e-05
2.158552733906131834e+03 5.623413251903490700e-05
2.192385539347748818e+03 1.000000000000000048e-04
2.223770175920583824e+03 1.778279410038922698e-04
2.255202135445846579e+03 3.162277660168379394e-04
2.288885081497063766e+03 5.623413251903490971e-04
2.326851439199974720e+03 1.000000000000000021e-03
2.370830470211065403e+03 1.778279410038922752e-03
2.423007238155343202e+03 3.162277660168379394e-03
2.485254081708313606e+03 5.623413251903490971e-03
2.561267220103283762e+03 1.000000000000000021e-02
2.657676483560092493e+03 1.778279410038922925e-02
2.774503152883944495e+03 3.162277660168379134e-02
2.906588441649266315e+03 5.623413251903491145e-02
3.053691544271705880e+03 1.000000000000000056e-01
3.218710117399257342e+03 1.778279410038922925e-01
3.403374926994923499e+03 3.162277660168379412e-01
3.608100383165279709e+03 5.623413251903490728e-01
3.834166353194716066e+03 1.000000000000000000e+00
4.086287910466803623e+03 1.778279410038922759e+00
4.373724303542313464e+03 3.162277660168379523e+00
4.701918224752176684e+03 5.623413251903491172e+00
5.102891066305475761e+03 1.000000000000000000e+01
5.612564369751177765e+03 1.778279410038922848e+01
6.293170268925573509e+03 3.162277660168379256e+01
7.251396058820366306e+03 5.623413251903490817e+01
8.656531010011702165e+03 1.000000000000000000e+02
1.051725786051619434e+04 1.778279410038922776e+02
1.275251298461692204e+04 3.162277660168379612e+02
