# Temperature (K), Pressure (bars)
9.005342311212662025e+02 1.000000000000000048e-04
9.576960409174214419e+02 1.778279410038922698e-04
1.014857852111061334e+03 3.162277660168379394e-04
1.069342252008419109e+03 5.623413251903490971e-04
1.123081315528371988e+03 1.000000000000000021e-03
1.178253260879563413e+03 1.778279410038922752e-03
1.236553863996987729e+03 3.162277660168379394e-03
1.300914820974968507e+03 5.623413251903490971e-03
1.374456430114099703e+03 1.000000000000000021e-02
1.464873063821863525e+03 1.778279410038922925e-02
1.583863290076316844e+03 3.162277660168379134e-02
1.754580503805015951e+03 5.623413251903491145e-02
1.983459671533568780e+03 1.000000000000000056e-01
2.227252007150625104e+03 1.778279410038922925e-01
2.453885939361442979e+03 3.162277660168379412e-01
2.665941563007369041e+03 5.623413251903490728e-01
2.869764259634003793e+03 1.000000000000000000e+00
3.071755175660195619e+03 1.778279410038922759e+00
3.277493347219924544e+03 3.162277660168379523e+00
3.492315089055160570e+03 5.623413251903491172e+00
3.721398773599547440e+03 1.000000000000000000e+01
3.970061332012853654e+03 1.778279410038922848e+01
4.246475838511198162e+03 3.162277660168379256e+01
4.555502919323696005e+03 5.623413251903490817e+01
4.905152773506324593e+03 1.000000000000000000e+02
5.299603115262011670e+03 1.778279410038922776e+02
5.763948353110557946e+03 3.162277660168379612e+02
