# Temperature (K), Pressure (bars)
8.666326380080386116e+02 1.000000000000000021e-03
9.107293416684249223e+02 1.778279410038922752e-03
9.548260463155913840e+02 3.162277660168379394e-03
9.984186606499253003e+02 5.623413251903490971e-03
1.042215162881483138e+03 1.000000000000000021e-02
1.086839668673306505e+03 1.778279410038922925e-02
1.133237847201573231e+03 3.162277660168379134e-02
1.183669859786139796e+03 5.623413251903491145e-02
1.242252715766087704e+03 1.000000000000000056e-01
1.314063801640470047e+03 1.778279410038922925e-01
1.408340965946659935e+03 3.162277660168379412e-01
1.544740391627557301e+03 5.623413251903490728e-01
1.747832076429752078e+03 1.000000000000000000e+00
2.011541578813078331e+03 1.778279410038922759e+00
2.296267662695112904e+03 3.162277660168379523e+00
2.579020669703623753e+03 5.623413251903491172e+00
2.857116593848786579e+03 1.000000000000000000e+01
3.131405449459985903e+03 1.778279410038922848e+01
3.409546192757699373e+03 3.162277660168379256e+01
3.698200599160373713e+03 5.623413251903490817e+01
4.005174830805626698e+03 1.000000000000000000e+02
4.334862155201404676e+03 1.778279410038922776e+02
4.702296717945923774e+03 3.162277660168379612e+02
