# Temperature (K), Pressure (bars)
6.721270970329527472e+02 9.999999999999999547e-07
6.942747753108042161e+02 1.778279410038922901e-06
7.164224536102184402e+02 3.162277660168379191e-06
7.410977589616296655e+02 5.623413251903491208e-06
7.681023182701569567e+02 1.000000000000000082e-05
7.977943043288872786e+02 1.778279410038922901e-05
8.300822921901373093e+02 3.162277660168379530e-05
8.649250023869440156e+02 5.623413251903490700e-05
9.030296027346157643e+02 1.000000000000000048e-04
9.440633719807938178e+02 1.778279410038922698e-04
9.878020567609644331e+02 3.162277660168379394e-04
1.034586099191127687e+03 5.623413251903490971e-04
1.085305300507631955e+03 1.000000000000000021e-03
1.142360262942651161e+03 1.778279410038922752e-03
1.207593245248999210e+03 3.162277660168379394e-03
1.286041821351568615e+03 5.623413251903490971e-03
1.380195042086473222e+03 1.000000000000000021e-02
1.515838417650312294e+03 1.778279410038922925e-02
1.726503512953076552e+03 3.162277660168379134e-02
1.979295641634159438e+03 5.623413251903491145e-02
2.224410087230232421e+03 1.000000000000000056e-01
2.448100216155893577e+03 1.778279410038922925e-01
2.652190699171261258e+03 3.162277660168379412e-01
2.844959835918200952e+03 5.623413251903490728e-01
3.034148326815546170e+03 1.000000000000000000e+00
3.226276970033516136e+03 1.778279410038922759e+00
3.426855753689811536e+03 3.162277660168379523e+00
3.640656848485566115e+03 5.623413251903491172e+00
3.872313904087763149e+03 1.000000000000000000e+01
4.126841116238300856e+03 1.778279410038922848e+01
4.410131285628338446e+03 3.162277660168379256e+01
4.729873232373080100e+03 5.623413251903490817e+01
5.100615791396747227e+03 1.000000000000000000e+02
5.530331388491516918e+03 1.778279410038922776e+02
6.036120365663659868e+03 3.162277660168379612e+02
