# Temperature (K), Pressure (bars)
8.914431120767142147e+02 3.162277660168379394e-04
9.430822809829277276e+02 5.623413251903490971e-04
9.947214510969405410e+02 1.000000000000000021e-03
1.044015850929346016e+03 1.778279410038922752e-03
1.092481259684010183e+03 3.162277660168379394e-03
1.142030090522326873e+03 5.623413251903490971e-03
1.199810783208662087e+03 1.000000000000000021e-02
1.264999153479151346e+03 1.778279410038922925e-02
1.381714058174632555e+03 3.162277660168379134e-02
1.604005182877246398e+03 5.623413251903491145e-02
1.873127731747035568e+03 1.000000000000000056e-01
2.131432022632034659e+03 1.778279410038922925e-01
2.375663011815202481e+03 3.162277660168379412e-01
2.600987525308679778e+03 5.623413251903490728e-01
2.812462091142299414e+03 1.000000000000000000e+00
3.017922897232889227e+03 1.778279410038922759e+00
3.224841596141403897e+03 3.162277660168379523e+00
3.439584263403188743e+03 5.623413251903491172e+00
3.667584639009003240e+03 1.000000000000000000e+01
3.914169580489115106e+03 1.778279410038922848e+01
4.187461072902939122e+03 3.162277660168379256e+01
4.491926231123126854e+03 5.623413251903490817e+01
4.835197567099166918e+03 1.000000000000000000e+02
5.220776363415116975e+03 1.778279410038922776e+02
5.672821332041906317e+03 3.162277660168379612e+02
