# Temperature (K), Pressure (bars)
2.296152325530792496e+03 9.999999999999999547e-07
2.313457659370788861e+03 1.778279410038922901e-06
2.330762993210784771e+03 3.162277660168379191e-06
2.360733062391855128e+03 5.623413251903491208e-06
2.397911046763087597e+03 1.000000000000000082e-05
2.437781650581805025e+03 1.778279410038922901e-05
2.480453172671101129e+03 3.162277660168379530e-05
2.524084753070299939e+03 5.623413251903490700e-05
2.566450727668836407e+03 1.000000000000000048e-04
2.605413100554555058e+03 1.778279410038922698e-04
2.639577646345036555e+03 3.162277660168379394e-04
2.669526022327117971e+03 5.623413251903490971e-04
2.698963876160808013e+03 1.000000000000000021e-03
2.733477442181164406e+03 1.778279410038922752e-03
2.778657434366255075e+03 3.162277660168379394e-03
2.837144439869285179e+03 5.623413251903490971e-03
2.911010912460363670e+03 1.000000000000000021e-02
2.996299978124099653e+03 1.778279410038922925e-02
3.097527471501945456e+03 3.162277660168379134e-02
3.234641841363290041e+03 5.623413251903491145e-02
3.409623838229706053e+03 1.000000000000000056e-01
3.606325215556733838e+03 1.778279410038922925e-01
3.843293880427220301e+03 3.162277660168379412e-01
4.111652733426232771e+03 5.623413251903490728e-01
4.452905908666922187e+03 1.000000000000000000e+00
4.927129770250639922e+03 1.778279410038922759e+00
5.667329791867366112e+03 3.162277660168379523e+00
6.854506665730867098e+03 5.623413251903491172e+00
8.454082362381479470e+03 1.000000000000000000e+01
1.000000000000000000e+04 1.778279410038922848e+01
1.000000000000000000e+04 3.162277660168379256e+01
1.000000000000000000e+04 5.623413251903490817e+01
1.000000000000000000e+04 1.000000000000000000e+02
1.000000000000000000e+04 1.778279410038922776e+02
1.000000000000000000e+04 3.162277660168379612e+02
