# Temperature (K), Pressure (bars)
1.112493022424256196e+03 9.999999999999999547e-07
1.153561290127470556e+03 1.778279410038922901e-06
1.194629557831615557e+03 3.162277660168379191e-06
1.237466246361836056e+03 5.623413251903491208e-06
1.282438775415107102e+03 1.000000000000000082e-05
1.330411485670692628e+03 1.778279410038922901e-05
1.383093663475359108e+03 3.162277660168379530e-05
1.443613282024403361e+03 5.623413251903490700e-05
1.512191102883654821e+03 1.000000000000000048e-04
1.590456688176336684e+03 1.778279410038922698e-04
1.683339824687373493e+03 3.162277660168379394e-04
1.784565775409972957e+03 5.623413251903490971e-04
1.889274524301308929e+03 1.000000000000000021e-03
2.010745065370158727e+03 1.778279410038922752e-03
2.155971126687543347e+03 3.162277660168379394e-03
2.310670650634356207e+03 5.623413251903490971e-03
2.464942448522852828e+03 1.000000000000000021e-02
2.620770266534235816e+03 1.778279410038922925e-02
2.780647402845964280e+03 3.162277660168379134e-02
2.947068985831281680e+03 5.623413251903491145e-02
3.122336316063797767e+03 1.000000000000000056e-01
3.308151526736942287e+03 1.778279410038922925e-01
3.506316694032563646e+03 3.162277660168379412e-01
3.720731834273560708e+03 5.623413251903490728e-01
3.958317330053530895e+03 1.000000000000000000e+00
4.229182609712400335e+03 1.778279410038922759e+00
4.539195192222673541e+03 3.162277660168379523e+00
4.921144794718151388e+03 5.623413251903491172e+00
5.415925827027003834e+03 1.000000000000000000e+01
6.097129981460838280e+03 1.778279410038922848e+01
7.080935848658172290e+03 3.162277660168379256e+01
8.533379495577451962e+03 5.623413251903490817e+01
1.041594037806673623e+04 1.000000000000000000e+02
1.267685235216085675e+04 1.778279410038922776e+02
1.537340230332089959e+04 3.162277660168379612e+02
