# Temperature (K), Pressure (bars)
1.694254299503743823e+03 9.999999999999999547e-07
1.704505713817722381e+03 1.778279410038922901e-06
1.714757128136571737e+03 3.162277660168379191e-06
1.766976185866557671e+03 5.623413251903491208e-06
1.827341619454588908e+03 1.000000000000000082e-05
1.873964084923100700e+03 1.778279410038922901e-05
1.921235842948846766e+03 3.162277660168379530e-05
1.971280497869109013e+03 5.623413251903490700e-05
2.020395736346857120e+03 1.000000000000000048e-04
2.066156505603617916e+03 1.778279410038922698e-04
2.106222397785420981e+03 3.162277660168379394e-04
2.141769278433704130e+03 5.623413251903490971e-04
2.174343885215143928e+03 1.000000000000000021e-03
2.205228309536917550e+03 1.778279410038922752e-03
2.235929759791407832e+03 3.162277660168379394e-03
2.269191780201401798e+03 5.623413251903490971e-03
2.307057856098397679e+03 1.000000000000000021e-02
2.354038488412212246e+03 1.778279410038922925e-02
2.410813054930997168e+03 3.162277660168379134e-02
2.488865220888017575e+03 5.623413251903491145e-02
2.609558265057107292e+03 1.000000000000000056e-01
2.759716868363277172e+03 1.778279410038922925e-01
2.919925746586682635e+03 3.162277660168379412e-01
3.091346820868582654e+03 5.623413251903490728e-01
3.275585806142852562e+03 1.000000000000000000e+00
3.473155454227675818e+03 1.778279410038922759e+00
3.685259614784795303e+03 3.162277660168379523e+00
3.915186305766593250e+03 5.623413251903491172e+00
4.168051039433423284e+03 1.000000000000000000e+01
4.450365581253443452e+03 1.778279410038922848e+01
4.770639371148650753e+03 3.162277660168379256e+01
5.143506791361527576e+03 5.623413251903490817e+01
5.581320090766297653e+03 1.000000000000000000e+02
6.105503939521940083e+03 1.778279410038922776e+02
6.748377099814319990e+03 3.162277660168379612e+02
