# Temperature (K), Pressure (bars)
8.271601361100480290e+02 1.000000000000000082e-05
8.747883001900797808e+02 1.778279410038922901e-05
9.224164631210736616e+02 3.162277660168379530e-05
9.652552708306166096e+02 5.623413251903490700e-05
1.010325470239891388e+03 1.000000000000000048e-04
1.061540216581464847e+03 1.778279410038922698e-04
1.114468358948901823e+03 3.162277660168379394e-04
1.163080278765448611e+03 5.623413251903490971e-04
1.202652370005490184e+03 1.000000000000000021e-03
1.235465439750892983e+03 1.778279410038922752e-03
1.268955039483362270e+03 3.162277660168379394e-03
1.305025162239842302e+03 5.623413251903490971e-03
1.353175548672345940e+03 1.000000000000000021e-02
1.398428121785572102e+03 1.778279410038922925e-02
1.471924434599819278e+03 3.162277660168379134e-02
1.655842732312458338e+03 5.623413251903491145e-02
1.907258844472626834e+03 1.000000000000000056e-01
2.156341183405380434e+03 1.778279410038922925e-01
2.394510278780470799e+03 3.162277660168379412e-01
2.616663810788735191e+03 5.623413251903490728e-01
2.827282312727117642e+03 1.000000000000000000e+00
3.032815294135652948e+03 1.778279410038922759e+00
3.240038303331145016e+03 3.162277660168379523e+00
3.455210091602188186e+03 5.623413251903491172e+00
3.683815075263620201e+03 1.000000000000000000e+01
3.931227038343859022e+03 1.778279410038922848e+01
4.205614293767576783e+03 3.162277660168379256e+01
4.511622084123023342e+03 5.623413251903490817e+01
4.856906325272342656e+03 1.000000000000000000e+02
5.245330497294812631e+03 1.778279410038922776e+02
5.700608150629335796e+03 3.162277660168379612e+02
