# Temperature (K), Pressure (bars)
1.518559496096104340e+03 5.623413251903490700e-05
1.547690739103412398e+03 1.000000000000000048e-04
1.576821984895944979e+03 1.778279410038922698e-04
1.611803490912603365e+03 3.162277660168379394e-04
1.649783923884335763e+03 5.623413251903490971e-04
1.689699554138530402e+03 1.000000000000000021e-03
1.730429226720038969e+03 1.778279410038922752e-03
1.768512514572806595e+03 3.162277660168379394e-03
1.807393746293301774e+03 5.623413251903490971e-03
1.848466493754949170e+03 1.000000000000000021e-02
1.889993106709379617e+03 1.778279410038922925e-02
1.932643164039422800e+03 3.162277660168379134e-02
1.978548559887847432e+03 5.623413251903491145e-02
2.030518512845206942e+03 1.000000000000000056e-01
2.096450723916579136e+03 1.778279410038922925e-01
2.175463845590537858e+03 3.162277660168379412e-01
2.290439860883664551e+03 5.623413251903490728e-01
2.480405091702058144e+03 1.000000000000000000e+00
2.711202250206357348e+03 1.778279410038922759e+00
2.940303250810633926e+03 3.162277660168379523e+00
3.170389496165263608e+03 5.623413251903491172e+00
3.406779135746880002e+03 1.000000000000000000e+01
3.654548836953736554e+03 1.778279410038922848e+01
3.920693006486570084e+03 3.162277660168379256e+01
4.211313728097223247e+03 5.623413251903490817e+01
4.533395933931794389e+03 1.000000000000000000e+02
4.890054247003017736e+03 1.778279410038922776e+02
5.301221404210195033e+03 3.162277660168379612e+02
