# Temperature (K), Pressure (bars)
9.030183998187131920e+02 1.000000000000000021e-03
9.400173829343058287e+02 1.778279410038922752e-03
9.770163664198487368e+02 3.162277660168379394e-03
1.015044466989283933e+03 5.623413251903490971e-03
1.054507251907187992e+03 1.000000000000000021e-02
1.095223488170486007e+03 1.778279410038922925e-02
1.137571287233748308e+03 3.162277660168379134e-02
1.183054241535143319e+03 5.623413251903491145e-02
1.234272815281282419e+03 1.000000000000000056e-01
1.295384078180808956e+03 1.778279410038922925e-01
1.369075455746822172e+03 3.162277660168379412e-01
1.481990452856995717e+03 5.623413251903490728e-01
1.679008029915573616e+03 1.000000000000000000e+00
1.948007373347481007e+03 1.778279410038922759e+00
2.237518240849481572e+03 3.162277660168379523e+00
2.524899794088515137e+03 5.623413251903491172e+00
2.807297860656847661e+03 1.000000000000000000e+01
3.085301899561659866e+03 1.778279410038922848e+01
3.365977468548777779e+03 3.162277660168379256e+01
3.655822321544582792e+03 5.623413251903490817e+01
3.962692985504571880e+03 1.000000000000000000e+02
4.290740479834030339e+03 1.778279410038922776e+02
4.655642363010189001e+03 3.162277660168379612e+02
