# Temperature (K), Pressure (bars)
9.262623180833874130e+02 1.000000000000000021e-03
9.658081881274016496e+02 1.778279410038922752e-03
1.005354058484897450e+03 3.162277660168379394e-03
1.043647433379744371e+03 5.623413251903490971e-03
1.082708647365234128e+03 1.000000000000000021e-02
1.123371983250068070e+03 1.778279410038922925e-02
1.165670704735982781e+03 3.162277660168379134e-02
1.211107657293213151e+03 5.623413251903491145e-02
1.261117707788057032e+03 1.000000000000000056e-01
1.319832787003240583e+03 1.778279410038922925e-01
1.397461913150590817e+03 3.162277660168379412e-01
1.515554745782517784e+03 5.623413251903490728e-01
1.677366443083095419e+03 1.000000000000000000e+00
1.890172465127140185e+03 1.778279410038922759e+00
2.169090570843996829e+03 3.162277660168379523e+00
2.468865515093083104e+03 5.623413251903491172e+00
2.755376240737215994e+03 1.000000000000000000e+01
3.037209661518729263e+03 1.778279410038922848e+01
3.320805165569756809e+03 3.162277660168379256e+01
3.612312402795384969e+03 5.623413251903490817e+01
3.919643266228881657e+03 1.000000000000000000e+02
4.247455750169950988e+03 1.778279410038922776e+02
4.610658721043663718e+03 3.162277660168379612e+02
