# Temperature (K), Pressure (bars)
1.487961435768867659e+03 5.623413251903490700e-05
1.519533983815629654e+03 1.000000000000000048e-04
1.551106536424521664e+03 1.778279410038922698e-04
1.590870668407532776e+03 3.162277660168379394e-04
1.637014504583062717e+03 5.623413251903490971e-04
1.690026906616317774e+03 1.000000000000000021e-03
1.755163128019746409e+03 1.778279410038922752e-03
1.814464839890863004e+03 3.162277660168379394e-03
1.857766659681675264e+03 5.623413251903490971e-03
1.894416290910566659e+03 1.000000000000000021e-02
1.926377714496823273e+03 1.778279410038922925e-02
1.953362447289492593e+03 3.162277660168379134e-02
1.979096904576129191e+03 5.623413251903491145e-02
2.008428172543443225e+03 1.000000000000000056e-01
2.048265583182669161e+03 1.778279410038922925e-01
2.100649115723222621e+03 3.162277660168379412e-01
2.171434889580451909e+03 5.623413251903490728e-01
2.255873894360514441e+03 1.000000000000000000e+00
2.389323782593658052e+03 1.778279410038922759e+00
2.622682350071163910e+03 3.162277660168379523e+00
2.891975837425422014e+03 5.623413251903491172e+00
3.145465345400792557e+03 1.000000000000000000e+01
3.401782917435803029e+03 1.778279410038922848e+01
3.669431588982447465e+03 3.162277660168379256e+01
3.955145925107697167e+03 5.623413251903490817e+01
4.265847671946272385e+03 1.000000000000000000e+02
4.604952012345260300e+03 1.778279410038922776e+02
4.989637309897667365e+03 3.162277660168379612e+02
