# Temperature (K), Pressure (bars)
1.883652250401458559e+03 1.778279410038922901e-06
1.889711059695672702e+03 3.162277660168379191e-06
1.896230812858311083e+03 5.623413251903491208e-06
1.906870054199891001e+03 1.000000000000000082e-05
1.922311381166275169e+03 1.778279410038922901e-05
1.942232396934297640e+03 3.162277660168379530e-05
1.967592638716564579e+03 5.623413251903490700e-05
2.000190955971326730e+03 1.000000000000000048e-04
2.040218651287904777e+03 1.778279410038922698e-04
2.086056317969359952e+03 3.162277660168379394e-04
2.136646629664137436e+03 5.623413251903490971e-04
2.191619028219982283e+03 1.000000000000000021e-03
2.251854833250772572e+03 1.778279410038922752e-03
2.319068619320977632e+03 3.162277660168379394e-03
2.401628560451941667e+03 5.623413251903490971e-03
2.506338227999249284e+03 1.000000000000000021e-02
2.624185445870186413e+03 1.778279410038922925e-02
2.749135794164842991e+03 3.162277660168379134e-02
2.883839233405913546e+03 5.623413251903491145e-02
3.029831058947934707e+03 1.000000000000000056e-01
3.189179448169785246e+03 1.778279410038922925e-01
3.364544938909038592e+03 3.162277660168379412e-01
3.558846532228391425e+03 5.623413251903490728e-01
3.774814799735413544e+03 1.000000000000000000e+00
4.015911093902962875e+03 1.778279410038922759e+00
4.288646933997932138e+03 3.162277660168379523e+00
4.604189739584505332e+03 5.623413251903491172e+00
4.973761766236794756e+03 1.000000000000000000e+01
5.433027085708254162e+03 1.778279410038922848e+01
6.032077495592997366e+03 3.162277660168379256e+01
6.862427692622407449e+03 5.623413251903490817e+01
8.073780691445864250e+03 1.000000000000000000e+02
9.765516762679384556e+03 1.778279410038922776e+02
1.184019622209387489e+04 3.162277660168379612e+02
