# Temperature (K), Pressure (bars)
2.008514989808262953e+03 9.999999999999999547e-07
2.058125590127717714e+03 1.778279410038922901e-06
2.107736190447171793e+03 3.162277660168379191e-06
2.156599150760583143e+03 5.623413251903491208e-06
2.203063090751623804e+03 1.000000000000000082e-05
2.245349997397147945e+03 1.778279410038922901e-05
2.283015498781394399e+03 3.162277660168379530e-05
2.316823552498020490e+03 5.623413251903490700e-05
2.348099638564324778e+03 1.000000000000000048e-04
2.378956585405765054e+03 1.778279410038922698e-04
2.411941345311605801e+03 3.162277660168379394e-04
2.449339319751908079e+03 5.623413251903490971e-04
2.492998131863023445e+03 1.000000000000000021e-03
2.545325328727577471e+03 1.778279410038922752e-03
2.607611615581968181e+03 3.162277660168379394e-03
2.680552701311062719e+03 5.623413251903490971e-03
2.758310134626064610e+03 1.000000000000000021e-02
2.846716349644528691e+03 1.778279410038922925e-02
2.966742907196105079e+03 3.162277660168379134e-02
3.116526700270335368e+03 5.623413251903491145e-02
3.291454541246639565e+03 1.000000000000000056e-01
3.493588627820293368e+03 1.778279410038922925e-01
3.708682253480041254e+03 3.162277660168379412e-01
3.956908319079980629e+03 5.623413251903490728e-01
4.244016427625978395e+03 1.000000000000000000e+00
4.593105492321533347e+03 1.778279410038922759e+00
5.059904752341095445e+03 3.162277660168379523e+00
5.740474413924104738e+03 5.623413251903491172e+00
6.789275810308180553e+03 1.000000000000000000e+01
8.318139907934431903e+03 1.778279410038922848e+01
1.000000000000000000e+04 3.162277660168379256e+01
1.000000000000000000e+04 5.623413251903490817e+01
1.000000000000000000e+04 1.000000000000000000e+02
1.000000000000000000e+04 1.778279410038922776e+02
1.000000000000000000e+04 3.162277660168379612e+02
