# Temperature (K), Pressure (bars)
9.221756731227932278e+02 5.623413251903490700e-05
9.790958480552237688e+02 1.000000000000000048e-04
1.036016022455587063e+03 1.778279410038922698e-04
1.078149991083088935e+03 3.162277660168379394e-04
1.109908966539703897e+03 5.623413251903490971e-04
1.140396571874359779e+03 1.000000000000000021e-03
1.171108527099720732e+03 1.778279410038922752e-03
1.201532976307666786e+03 3.162277660168379394e-03
1.232759567606265819e+03 5.623413251903490971e-03
1.264294000725422165e+03 1.000000000000000021e-02
1.296039034406631572e+03 1.778279410038922925e-02
1.330496704875031128e+03 3.162277660168379134e-02
1.368532898794006314e+03 5.623413251903491145e-02
1.423477404395210215e+03 1.000000000000000056e-01
1.517830276035512270e+03 1.778279410038922925e-01
1.647172921796435276e+03 3.162277660168379412e-01
1.822752472442422686e+03 5.623413251903490728e-01
2.067108956423703148e+03 1.000000000000000000e+00
2.342606049266029913e+03 1.778279410038922759e+00
2.611015060469870150e+03 3.162277660168379523e+00
2.870246771819253809e+03 5.623413251903491172e+00
3.124012605442167114e+03 1.000000000000000000e+01
3.379830030786653424e+03 1.778279410038922848e+01
3.647341296187936223e+03 3.162277660168379256e+01
3.932559488829778729e+03 5.623413251903490817e+01
4.242409497389415264e+03 1.000000000000000000e+02
4.580016012984044210e+03 1.778279410038922776e+02
4.962683392147650011e+03 3.162277660168379612e+02
