# Temperature (K), Pressure (bars)
1.538034857319262301e+03 5.623413251903490700e-05
1.558700207222815379e+03 1.000000000000000048e-04
1.579365560328146330e+03 1.778279410038922698e-04
1.608970504111292939e+03 3.162277660168379394e-04
1.645279344834079666e+03 5.623413251903490971e-04
1.683211786742089998e+03 1.000000000000000021e-03
1.728505279855122808e+03 1.778279410038922752e-03
1.787550349485400375e+03 3.162277660168379394e-03
1.841252516276790402e+03 5.623413251903490971e-03
1.877770647038219977e+03 1.000000000000000021e-02
1.907592020998725502e+03 1.778279410038922925e-02
1.934727442114325640e+03 3.162277660168379134e-02
1.960333882281644946e+03 5.623413251903491145e-02
1.990426961575281439e+03 1.000000000000000056e-01
2.030974041912712892e+03 1.778279410038922925e-01
2.087899518662618448e+03 3.162277660168379412e-01
2.159559172010089242e+03 5.623413251903490728e-01
2.261119618034810628e+03 1.000000000000000000e+00
2.444031886863909676e+03 1.778279410038922759e+00
2.700727970349429597e+03 3.162277660168379523e+00
2.962079077238957325e+03 5.623413251903491172e+00
3.210879194235309114e+03 1.000000000000000000e+01
3.464413677792463659e+03 1.778279410038922848e+01
3.730941255952645406e+03 3.162277660168379256e+01
4.017176253175701731e+03 5.623413251903490817e+01
4.330048823566134161e+03 1.000000000000000000e+02
4.672993714412487861e+03 1.778279410038922776e+02
5.063375293255553515e+03 3.162277660168379612e+02
