# Temperature (K), Pressure (bars)
9.632398139002493735e+02 9.999999999999999547e-07
9.981554297291488638e+02 1.778279410038922901e-06
1.033071045560240236e+03 3.162277660168379191e-06
1.072110408466642411e+03 5.623413251903491208e-06
1.116059288365970133e+03 1.000000000000000082e-05
1.162472208263642869e+03 1.778279410038922901e-05
1.209550794730242615e+03 3.162277660168379530e-05
1.256915428294058302e+03 5.623413251903490700e-05
1.305998158863976187e+03 1.000000000000000048e-04
1.362787299977621842e+03 1.778279410038922698e-04
1.433114277093875444e+03 3.162277660168379394e-04
1.518811969757834504e+03 5.623413251903490971e-04
1.612198129370922288e+03 1.000000000000000021e-03
1.712057538402880255e+03 1.778279410038922752e-03
1.831012847671969212e+03 3.162277660168379394e-03
1.956021710605832595e+03 5.623413251903490971e-03
2.087284154894015501e+03 1.000000000000000021e-02
2.244130507727388704e+03 1.778279410038922925e-02
2.409517005678972055e+03 3.162277660168379134e-02
2.570140659761294046e+03 5.623413251903491145e-02
2.732182252375255302e+03 1.000000000000000056e-01
2.898676185791765874e+03 1.778279410038922925e-01
3.071819107468570564e+03 3.162277660168379412e-01
3.253049785546916610e+03 5.623413251903490728e-01
3.443841892113229733e+03 1.000000000000000000e+00
3.647051756085559646e+03 1.778279410038922759e+00
3.867117594694185300e+03 3.162277660168379523e+00
4.109511138308110276e+03 5.623413251903491172e+00
4.380778612937448997e+03 1.000000000000000000e+01
4.689495911726884515e+03 1.778279410038922848e+01
5.049883250851815319e+03 3.162277660168379256e+01
5.476152705197952855e+03 5.623413251903490817e+01
5.990630555296941566e+03 1.000000000000000000e+02
6.626831427638888272e+03 1.778279410038922776e+02
7.437352956300559526e+03 3.162277660168379612e+02
