# Temperature (K), Pressure (bars)
8.830221323175105681e+02 1.000000000000000048e-04
9.358993031799884648e+02 1.778279410038922698e-04
9.887764754723777969e+02 3.162277660168379394e-04
1.040281194347291830e+03 5.623413251903490971e-04
1.091462931185324351e+03 1.000000000000000021e-03
1.144189388423761102e+03 1.778279410038922752e-03
1.199923449043082655e+03 3.162277660168379394e-03
1.261128911704693564e+03 5.623413251903490971e-03
1.330765093208238568e+03 1.000000000000000021e-02
1.414792681140288551e+03 1.778279410038922925e-02
1.517409076511850799e+03 3.162277660168379134e-02
1.664374540433244192e+03 5.623413251903491145e-02
1.882213970467437093e+03 1.000000000000000056e-01
2.133046043532375279e+03 1.778279410038922925e-01
2.372837242399835759e+03 3.162277660168379412e-01
2.596253156715114528e+03 5.623413251903490728e-01
2.807751040304703110e+03 1.000000000000000000e+00
3.014449640385322709e+03 1.778279410038922759e+00
3.222735407015193687e+03 3.162277660168379523e+00
3.438360640891910407e+03 5.623413251903491172e+00
3.666717101667325096e+03 1.000000000000000000e+01
3.913176616058408399e+03 1.778279410038922848e+01
4.185619747425384958e+03 3.162277660168379256e+01
4.488843980231760725e+03 5.623413251903490817e+01
4.830385208844916633e+03 1.000000000000000000e+02
5.213788342507909874e+03 1.778279410038922776e+02
5.662936346175220933e+03 3.162277660168379612e+02
