# Temperature (K), Pressure (bars)
2.244164672902898474e+03 9.999999999999999547e-07
2.261393770525181480e+03 1.778279410038922901e-06
2.278622868147464033e+03 3.162277660168379191e-06
2.303301946875152225e+03 5.623413251903491208e-06
2.333352908414790363e+03 1.000000000000000082e-05
2.366475739130101374e+03 1.778279410038922901e-05
2.403386833576280878e+03 3.162277660168379530e-05
2.444725686911435787e+03 5.623413251903490700e-05
2.490808283225517698e+03 1.000000000000000048e-04
2.541032784992768029e+03 1.778279410038922698e-04
2.594714124863820416e+03 3.162277660168379394e-04
2.650581719703621275e+03 5.623413251903490971e-04
2.706121671005534154e+03 1.000000000000000021e-03
2.758768217687185825e+03 1.778279410038922752e-03
2.805357175557491246e+03 3.162277660168379394e-03
2.844050463451425912e+03 5.623413251903490971e-03
2.876530903166520147e+03 1.000000000000000021e-02
2.912388425502202153e+03 1.778279410038922925e-02
2.957368580906851093e+03 3.162277660168379134e-02
3.025899001149884498e+03 5.623413251903491145e-02
3.142258606826224877e+03 1.000000000000000056e-01
3.295526453587154265e+03 1.778279410038922925e-01
3.469636905806464711e+03 3.162277660168379412e-01
3.669810803315991507e+03 5.623413251903490728e-01
3.901451890577246559e+03 1.000000000000000000e+00
4.170400588413537662e+03 1.778279410038922759e+00
4.486785087392140667e+03 3.162277660168379523e+00
4.849361462818293148e+03 5.623413251903491172e+00
5.309263218157941083e+03 1.000000000000000000e+01
5.929503622112827543e+03 1.778279410038922848e+01
6.831065117767366246e+03 3.162277660168379256e+01
8.181357397111851242e+03 5.623413251903490817e+01
9.982653463329326769e+03 1.000000000000000000e+02
1.000000000000000000e+04 1.778279410038922776e+02
1.000000000000000000e+04 3.162277660168379612e+02
