# Temperature (K), Pressure (bars)
1.083030890221773461e+03 3.162277660168379394e-04
1.135234808931824318e+03 5.623413251903490971e-04
1.187438729387511330e+03 1.000000000000000021e-03
1.239265733477041294e+03 1.778279410038922752e-03
1.291719783451550938e+03 3.162277660168379394e-03
1.346182255225059862e+03 5.623413251903490971e-03
1.404442070732615775e+03 1.000000000000000021e-02
1.468239112249201753e+03 1.778279410038922925e-02
1.544343828774858366e+03 3.162277660168379134e-02
1.636278527450001775e+03 5.623413251903491145e-02
1.752235707829525381e+03 1.000000000000000056e-01
1.898456102836211585e+03 1.778279410038922925e-01
2.081129319648216097e+03 3.162277660168379412e-01
2.310089969939662751e+03 5.623413251903490728e-01
2.552281263385349121e+03 1.000000000000000000e+00
2.780940559135336571e+03 1.778279410038922759e+00
3.005049865028773638e+03 3.162277660168379523e+00
3.231042288943646327e+03 5.623413251903491172e+00
3.464412080898106069e+03 1.000000000000000000e+01
3.710683399396440564e+03 1.778279410038922848e+01
3.977350018707001709e+03 3.162277660168379256e+01
4.269940087284712718e+03 5.623413251903490817e+01
4.595458560478623440e+03 1.000000000000000000e+02
4.956973453557782705e+03 1.778279410038922776e+02
5.375200169840055423e+03 3.162277660168379612e+02
