# Temperature (K), Pressure (bars)
1.942207350984377626e+03 9.999999999999999547e-07
1.972293495660846474e+03 1.778279410038922901e-06
2.002379640337402179e+03 3.162277660168379191e-06
2.042436290309957258e+03 5.623413251903491208e-06
2.088257483199305170e+03 1.000000000000000082e-05
2.134493792022909474e+03 1.778279410038922901e-05
2.178596922420362716e+03 3.162277660168379530e-05
2.217876921054128616e+03 5.623413251903490700e-05
2.251947516535872182e+03 1.000000000000000048e-04
2.282536156801485959e+03 1.778279410038922698e-04
2.311867741377518087e+03 3.162277660168379394e-04
2.341937532321320305e+03 5.623413251903490971e-04
2.374556410463526390e+03 1.000000000000000021e-03
2.411819302665258874e+03 1.778279410038922752e-03
2.455178618658513187e+03 3.162277660168379394e-03
2.507591343950283317e+03 5.623413251903490971e-03
2.570266153469694927e+03 1.000000000000000021e-02
2.651064135054366034e+03 1.778279410038922925e-02
2.761049261742969065e+03 3.162277660168379134e-02
2.891259057252145794e+03 5.623413251903491145e-02
3.033900645177640399e+03 1.000000000000000056e-01
3.193294511379016512e+03 1.778279410038922925e-01
3.371928893123989837e+03 3.162277660168379412e-01
3.571121645686137526e+03 5.623413251903490728e-01
3.791917283535329261e+03 1.000000000000000000e+00
4.037570754163940819e+03 1.778279410038922759e+00
4.315528335632337985e+03 3.162277660168379523e+00
4.638193729156560948e+03 5.623413251903491172e+00
5.018276401857248857e+03 1.000000000000000000e+01
5.492828406840992102e+03 1.778279410038922848e+01
6.111642975073313210e+03 3.162277660168379256e+01
6.960357005254685646e+03 5.623413251903490817e+01
8.187947266384683644e+03 1.000000000000000000e+02
9.910454885373839716e+03 1.778279410038922776e+02
1.201490215532146431e+04 3.162277660168379612e+02
