# Temperature (K), Pressure (bars)
1.027369459890975804e+03 3.162277660168379394e-04
1.063398920782486812e+03 5.623413251903490971e-04
1.099428381521792517e+03 1.000000000000000021e-03
1.131462557779797635e+03 1.778279410038922752e-03
1.161070734742549575e+03 3.162277660168379394e-03
1.187819110427282794e+03 5.623413251903490971e-03
1.212162760982528198e+03 1.000000000000000021e-02
1.237644762874565004e+03 1.778279410038922925e-02
1.267527408705247126e+03 3.162277660168379134e-02
1.302706013281311243e+03 5.623413251903491145e-02
1.345745414503472830e+03 1.000000000000000056e-01
1.407516203169322580e+03 1.778279410038922925e-01
1.494693092701608748e+03 3.162277660168379412e-01
1.610561975524322179e+03 5.623413251903490728e-01
1.759901140997792481e+03 1.000000000000000000e+00
1.969388940764507197e+03 1.778279410038922759e+00
2.250430669210670658e+03 3.162277660168379523e+00
2.547825879922530476e+03 5.623413251903491172e+00
2.829317263523054862e+03 1.000000000000000000e+01
3.105799026684973342e+03 1.778279410038922848e+01
3.385313729119267464e+03 3.162277660168379256e+01
3.674721726459133151e+03 5.623413251903490817e+01
3.981790972590924412e+03 1.000000000000000000e+02
4.311046143059561473e+03 1.778279410038922776e+02
4.677331437717649351e+03 3.162277660168379612e+02
