# Temperature (K), Pressure (bars)
1.246193039837692368e+03 9.999999999999999547e-07
1.255881970453016947e+03 1.778279410038922901e-06
1.265570901072887409e+03 3.162277660168379191e-06
1.280934012161923192e+03 5.623413251903491208e-06
1.304553781483619787e+03 1.000000000000000082e-05
1.334617843965767861e+03 1.778279410038922901e-05
1.370661941939958979e+03 3.162277660168379530e-05
1.414308699756439864e+03 5.623413251903490700e-05
1.466064892299854819e+03 1.000000000000000048e-04
1.523100352980163279e+03 1.778279410038922698e-04
1.588639407207363774e+03 3.162277660168379394e-04
1.671381217270103889e+03 5.623413251903490971e-04
1.759897894219341651e+03 1.000000000000000021e-03
1.845499655141165249e+03 1.778279410038922752e-03
1.933523689171037404e+03 3.162277660168379394e-03
2.037095143056738834e+03 5.623413251903490971e-03
2.172701411782517880e+03 1.000000000000000021e-02
2.326302552780991846e+03 1.778279410038922925e-02
2.479611031628713590e+03 3.162277660168379134e-02
2.633594714525084328e+03 5.623413251903491145e-02
2.791065316641415848e+03 1.000000000000000056e-01
2.954553230199529935e+03 1.778279410038922925e-01
3.126287611577291500e+03 3.162277660168379412e-01
3.307967580553355219e+03 5.623413251903490728e-01
3.501095378834679195e+03 1.000000000000000000e+00
3.708266785876680387e+03 1.778279410038922759e+00
3.933854908416421495e+03 3.162277660168379523e+00
4.183685587739126277e+03 5.623413251903491172e+00
4.465043783476294266e+03 1.000000000000000000e+01
4.787743277199575459e+03 1.778279410038922848e+01
5.167766072950806119e+03 3.162277660168379256e+01
5.623166797072352892e+03 5.623413251903490817e+01
6.183816155025027911e+03 1.000000000000000000e+02
6.897187038132312409e+03 1.778279410038922776e+02
7.842451007068614672e+03 3.162277660168379612e+02
