# Temperature (K), Pressure (bars)
9.507537886330918582e+02 5.623413251903490700e-05
1.004413894024800356e+03 1.000000000000000048e-04
1.058073999069232059e+03 1.778279410038922698e-04
1.106418381347241620e+03 3.162277660168379394e-04
1.154913454013106275e+03 5.623413251903490971e-04
1.200815808816944809e+03 1.000000000000000021e-03
1.237869470618303012e+03 1.778279410038922752e-03
1.268610202549112046e+03 3.162277660168379394e-03
1.300631005074834320e+03 5.623413251903490971e-03
1.333851286410926605e+03 1.000000000000000021e-02
1.367428068003113822e+03 1.778279410038922925e-02
1.436653049477511104e+03 3.162277660168379134e-02
1.561856603302765052e+03 5.623413251903491145e-02
1.719933927680205670e+03 1.000000000000000056e-01
1.888562841634510505e+03 1.778279410038922925e-01
2.083931078420909671e+03 3.162277660168379412e-01
2.330930253791887480e+03 5.623413251903490728e-01
2.583864861054307767e+03 1.000000000000000000e+00
2.812832285932063769e+03 1.778279410038922759e+00
3.036004774680593528e+03 3.162277660168379523e+00
3.260417175085731287e+03 5.623413251903491172e+00
3.492293198511092214e+03 1.000000000000000000e+01
3.737836039686256754e+03 1.778279410038922848e+01
4.005113911715026461e+03 3.162277660168379256e+01
4.299136777124989749e+03 5.623413251903490817e+01
4.626887136557579652e+03 1.000000000000000000e+02
4.991849590526085194e+03 1.778279410038922776e+02
5.414254568289269628e+03 3.162277660168379612e+02
