# Temperature (K), Pressure (bars)
9.290227878406761874e+02 3.162277660168379394e-04
9.727077690517420478e+02 5.623413251903490971e-04
1.016392750628536419e+03 1.000000000000000021e-03
1.058311961930993220e+03 1.778279410038922752e-03
1.101541628241795024e+03 3.162277660168379394e-03
1.147202936244525290e+03 5.623413251903490971e-03
1.195149652340534885e+03 1.000000000000000021e-02
1.246395941093279589e+03 1.778279410038922925e-02
1.301348477814682155e+03 3.162277660168379134e-02
1.368962121009696830e+03 5.623413251903491145e-02
1.470040380560256608e+03 1.000000000000000056e-01
1.624221831089603938e+03 1.778279410038922925e-01
1.818232600195919304e+03 3.162277660168379412e-01
2.042340330837317197e+03 5.623413251903490728e-01
2.305744204470230216e+03 1.000000000000000000e+00
2.572228751170374380e+03 1.778279410038922759e+00
2.818300167631900422e+03 3.162277660168379523e+00
3.058179178129161755e+03 5.623413251903491172e+00
3.299126995531694774e+03 1.000000000000000000e+01
3.548019432966111708e+03 1.778279410038922848e+01
3.813310991090936113e+03 3.162277660168379256e+01
4.100637640940218262e+03 5.623413251903490817e+01
4.416740744816120241e+03 1.000000000000000000e+02
4.764855962219409776e+03 1.778279410038922776e+02
5.163224808155092433e+03 3.162277660168379612e+02
