# Temperature (K), Pressure (bars)
1.564749613286535123e+03 1.778279410038922901e-05
1.596647581788927710e+03 3.162277660168379530e-05
1.628545555095965938e+03 5.623413251903490700e-05
1.667046076248532927e+03 1.000000000000000048e-04
1.716533263610384893e+03 1.778279410038922698e-04
1.779721303371477006e+03 3.162277660168379394e-04
1.844388925009604463e+03 5.623413251903490971e-04
1.899716006640303249e+03 1.000000000000000021e-03
1.946612888068196980e+03 1.778279410038922752e-03
1.986689204641999140e+03 3.162277660168379394e-03
2.021807754673847285e+03 5.623413251903490971e-03
2.053099948313769801e+03 1.000000000000000021e-02
2.081975021624674355e+03 1.778279410038922925e-02
2.111511579901205096e+03 3.162277660168379134e-02
2.145768129599778604e+03 5.623413251903491145e-02
2.188303651917469324e+03 1.000000000000000056e-01
2.243752077772829580e+03 1.778279410038922925e-01
2.315480469382464435e+03 3.162277660168379412e-01
2.417105029515307251e+03 5.623413251903490728e-01
2.582219411087121898e+03 1.000000000000000000e+00
2.803165915463639521e+03 1.778279410038922759e+00
3.031563050110940367e+03 3.162277660168379523e+00
3.256317234696581636e+03 5.623413251903491172e+00
3.489859361909877407e+03 1.000000000000000000e+01
3.737217154043059963e+03 1.778279410038922848e+01
4.004907924249397638e+03 3.162277660168379256e+01
4.299087287522023871e+03 5.623413251903490817e+01
4.626864021231186598e+03 1.000000000000000000e+02
4.991326763303522966e+03 1.778279410038922776e+02
5.413628796505769969e+03 3.162277660168379612e+02
