# Temperature (K), Pressure (bars)
9.880521808921251932e+02 5.623413251903491208e-06
1.041302445644113504e+03 1.000000000000000082e-05
1.094583020063693766e+03 1.778279410038922901e-05
1.143682403350795539e+03 3.162277660168379530e-05
1.190100057274190021e+03 5.623413251903490700e-05
1.238660812543367228e+03 1.000000000000000048e-04
1.293284552940020831e+03 1.778279410038922698e-04
1.359607772886696466e+03 3.162277660168379394e-04
1.442108983873907619e+03 5.623413251903490971e-04
1.538003151723510200e+03 1.000000000000000021e-03
1.642117617601407346e+03 1.778279410038922752e-03
1.747922063392398741e+03 3.162277660168379394e-03
1.850148725515237174e+03 5.623413251903490971e-03
1.960386394254591323e+03 1.000000000000000021e-02
2.102696843087528578e+03 1.778279410038922925e-02
2.274118726334909752e+03 3.162277660168379134e-02
2.448760923092765552e+03 5.623413251903491145e-02
2.618608305096785443e+03 1.000000000000000056e-01
2.788953692958786633e+03 1.778279410038922925e-01
2.962984667780086056e+03 3.162277660168379412e-01
3.142597100041919475e+03 5.623413251903490728e-01
3.329391320195773915e+03 1.000000000000000000e+00
3.526244471194393554e+03 1.778279410038922759e+00
3.737405400119318983e+03 3.162277660168379523e+00
3.967802733870999873e+03 5.623413251903491172e+00
4.223023160268396168e+03 1.000000000000000000e+01
4.509852476515095987e+03 1.778279410038922848e+01
4.837374020249439127e+03 3.162277660168379256e+01
5.221449549833934725e+03 5.623413251903490817e+01
5.675255993869148369e+03 1.000000000000000000e+02
6.222634088251824323e+03 1.778279410038922776e+02
6.899478765118912634e+03 3.162277660168379612e+02
