# Temperature (K), Pressure (bars)
1.049631748805817551e+03 3.162277660168379394e-04
1.110704968563064767e+03 5.623413251903490971e-04
1.171778189773273425e+03 1.000000000000000021e-03
1.231586592906970282e+03 1.778279410038922752e-03
1.290675720168669841e+03 3.162277660168379394e-03
1.351386900236330121e+03 5.623413251903490971e-03
1.417612146357374968e+03 1.000000000000000021e-02
1.491530965566956183e+03 1.778279410038922925e-02
1.583117452161241772e+03 3.162277660168379134e-02
1.700316373903396880e+03 5.623413251903491145e-02
1.870108192647473743e+03 1.000000000000000056e-01
2.109630865512077435e+03 1.778279410038922925e-01
2.358775553844852311e+03 3.162277660168379412e-01
2.580946505783368593e+03 5.623413251903490728e-01
2.791925993295981698e+03 1.000000000000000000e+00
2.999466434759439380e+03 1.778279410038922759e+00
3.209370003606719365e+03 3.162277660168379523e+00
3.426571167357579270e+03 5.623413251903491172e+00
3.656056390478090634e+03 1.000000000000000000e+01
3.903196986923333498e+03 1.778279410038922848e+01
4.175712421728820118e+03 3.162277660168379256e+01
4.478860494746683798e+03 5.623413251903490817e+01
4.820219596378422466e+03 1.000000000000000000e+02
5.203334010926410883e+03 1.778279410038922776e+02
5.652050251215118806e+03 3.162277660168379612e+02
