# Temperature (K), Pressure (bars)
1.103799362361026851e+03 9.999999999999999547e-07
1.151414885064119517e+03 1.778279410038922901e-06
1.199030407767250836e+03 3.162277660168379191e-06
1.279473382158828827e+03 5.623413251903491208e-06
1.392050563237582537e+03 1.000000000000000082e-05
1.547361668947463613e+03 1.778279410038922901e-05
1.689684797598132491e+03 3.162277660168379530e-05
1.779660993091573573e+03 5.623413251903490700e-05
1.844279876213628540e+03 1.000000000000000048e-04
1.896629551208522571e+03 1.778279410038922698e-04
1.939912269707537689e+03 3.162277660168379394e-04
1.979262427742206455e+03 5.623413251903490971e-04
2.018320293774856964e+03 1.000000000000000021e-03
2.059153855876522357e+03 1.778279410038922752e-03
2.103938263987807659e+03 3.162277660168379394e-03
2.154510001190073126e+03 5.623413251903490971e-03
2.215037114593135811e+03 1.000000000000000021e-02
2.287003813418438767e+03 1.778279410038922925e-02
2.382695851560862138e+03 3.162277660168379134e-02
2.516248738922462962e+03 5.623413251903491145e-02
2.667519600556017394e+03 1.000000000000000056e-01
2.821911273222731779e+03 1.778279410038922925e-01
2.985648231776558532e+03 3.162277660168379412e-01
3.160824442416332204e+03 5.623413251903490728e-01
3.348304354263394089e+03 1.000000000000000000e+00
3.548777244157340647e+03 1.778279410038922759e+00
3.764461953133710267e+03 3.162277660168379523e+00
3.999600900555083172e+03 5.623413251903491172e+00
4.259974150508143794e+03 1.000000000000000000e+01
4.552818490867744913e+03 1.778279410038922848e+01
4.887697066930337314e+03 3.162277660168379256e+01
5.280691430083875275e+03 5.623413251903490817e+01
5.746278140174757027e+03 1.000000000000000000e+02
6.309415788781682750e+03 1.778279410038922776e+02
7.006815136181092385e+03 3.162277660168379612e+02
