# Temperature (K), Pressure (bars)
2.155149741290626935e+03 9.999999999999999547e-07
2.167152295853521082e+03 1.778279410038922901e-06
2.179154850416415229e+03 3.162277660168379191e-06
2.196456463248693126e+03 5.623413251903491208e-06
2.215206759165555468e+03 1.000000000000000082e-05
2.231659044322721002e+03 1.778279410038922901e-05
2.245166560409219983e+03 3.162277660168379530e-05
2.256981466577535230e+03 5.623413251903490700e-05
2.270046456159224363e+03 1.000000000000000048e-04
2.286764606495389671e+03 1.778279410038922698e-04
2.308020989685364384e+03 3.162277660168379394e-04
2.332471122838775955e+03 5.623413251903490971e-04
2.358296731868433653e+03 1.000000000000000021e-03
2.384866482392198122e+03 1.778279410038922752e-03
2.413590257603856116e+03 3.162277660168379394e-03
2.445130140414078141e+03 5.623413251903490971e-03
2.483345905878225949e+03 1.000000000000000021e-02
2.526066814421507843e+03 1.778279410038922925e-02
2.589654340121733640e+03 3.162277660168379134e-02
2.702403783912374820e+03 5.623413251903491145e-02
2.841658108666541921e+03 1.000000000000000056e-01
2.985693005182345132e+03 1.778279410038922925e-01
3.142356670172755457e+03 3.162277660168379412e-01
3.315009002773192606e+03 5.623413251903490728e-01
3.505901099691637683e+03 1.000000000000000000e+00
3.716118950960466009e+03 1.778279410038922759e+00
3.947185523180613473e+03 3.162277660168379523e+00
4.203181853539352232e+03 5.623413251903491172e+00
4.491294749469219823e+03 1.000000000000000000e+01
4.821883486085552249e+03 1.778279410038922848e+01
5.210038356664589628e+03 3.162277660168379256e+01
5.677822663990743422e+03 5.623413251903490817e+01
6.258738706490220466e+03 1.000000000000000000e+02
7.007497954877828306e+03 1.778279410038922776e+02
8.013019346303114617e+03 3.162277660168379612e+02
