# Temperature (K), Pressure (bars)
1.105441808943330898e+03 5.623413251903490971e-04
1.139588901944390273e+03 1.000000000000000021e-03
1.173735994945741140e+03 1.778279410038922752e-03
1.204817024513077968e+03 3.162277660168379394e-03
1.239488438252747301e+03 5.623413251903490971e-03
1.288484637232625346e+03 1.000000000000000021e-02
1.348587202771024977e+03 1.778279410038922925e-02
1.408128917709531606e+03 3.162277660168379134e-02
1.486950958894819678e+03 5.623413251903491145e-02
1.602250823221211931e+03 1.000000000000000056e-01
1.703735577102493835e+03 1.778279410038922925e-01
1.774407595471404420e+03 3.162277660168379412e-01
1.847918770106302645e+03 5.623413251903490728e-01
1.939204965985311901e+03 1.000000000000000000e+00
2.057430721130800521e+03 1.778279410038922759e+00
2.247432218547337470e+03 3.162277660168379523e+00
2.529842762726085766e+03 5.623413251903491172e+00
2.829616117712423602e+03 1.000000000000000000e+01
3.108171373946359836e+03 1.778279410038922848e+01
3.387839933017248768e+03 3.162277660168379256e+01
3.677268173957766976e+03 5.623413251903490817e+01
3.984281799682524252e+03 1.000000000000000000e+02
4.313259152398652077e+03 1.778279410038922776e+02
4.679458162004688347e+03 3.162277660168379612e+02
