# Temperature (K), Pressure (bars)
2.415650425683668345e+03 9.999999999999999547e-07
2.421783216450964574e+03 1.778279410038922901e-06
2.427916007218261257e+03 3.162277660168379191e-06
2.449733054585457921e+03 5.623413251903491208e-06
2.481994974525746784e+03 1.000000000000000082e-05
2.515158518921172345e+03 1.778279410038922901e-05
2.548746164928935286e+03 3.162277660168379530e-05
2.582841404408592098e+03 5.623413251903490700e-05
2.619224594992235325e+03 1.000000000000000048e-04
2.660134834347342803e+03 1.778279410038922698e-04
2.704315256809734365e+03 3.162277660168379394e-04
2.749664792684895929e+03 5.623413251903490971e-04
2.792878564577395537e+03 1.000000000000000021e-03
2.831785063465786607e+03 1.778279410038922752e-03
2.870353388076375268e+03 3.162277660168379394e-03
2.918717063975673682e+03 5.623413251903490971e-03
2.978557400649862302e+03 1.000000000000000021e-02
3.041156427251261903e+03 1.778279410038922925e-02
3.091195098439123285e+03 3.162277660168379134e-02
3.163140787320577147e+03 5.623413251903491145e-02
3.311057757457871503e+03 1.000000000000000056e-01
3.505732996041206206e+03 1.778279410038922925e-01
3.710847819059182257e+03 3.162277660168379412e-01
3.953848633234325462e+03 5.623413251903490728e-01
4.237576349185846993e+03 1.000000000000000000e+00
4.583966799275998710e+03 1.778279410038922759e+00
5.049034863114016844e+03 3.162277660168379523e+00
5.743782053156193797e+03 5.623413251903491172e+00
6.850286379276903062e+03 1.000000000000000000e+01
8.413489758650544900e+03 1.778279410038922848e+01
1.000000000000000000e+04 3.162277660168379256e+01
1.000000000000000000e+04 5.623413251903490817e+01
1.000000000000000000e+04 1.000000000000000000e+02
1.000000000000000000e+04 1.778279410038922776e+02
1.000000000000000000e+04 3.162277660168379612e+02
