# Temperature (K), Pressure (bars)
1.335715288143966973e+03 1.000000000000000048e-04
1.358071537881826544e+03 1.778279410038922698e-04
1.380427790597400417e+03 3.162277660168379394e-04
1.409294352076547739e+03 5.623413251903490971e-04
1.444130358913287864e+03 1.000000000000000021e-03
1.484477518848144200e+03 1.778279410038922752e-03
1.539490064133962733e+03 3.162277660168379394e-03
1.612567951088819200e+03 5.623413251903490971e-03
1.682671960114793819e+03 1.000000000000000021e-02
1.739855617571164657e+03 1.778279410038922925e-02
1.794803003027587010e+03 3.162277660168379134e-02
1.853102953835519202e+03 5.623413251903491145e-02
1.917583037208243923e+03 1.000000000000000056e-01
1.992262790626235756e+03 1.778279410038922925e-01
2.086192920527051228e+03 3.162277660168379412e-01
2.199132003068570612e+03 5.623413251903490728e-01
2.352480781474074774e+03 1.000000000000000000e+00
2.573591825264907584e+03 1.778279410038922759e+00
2.819990068329344922e+03 3.162277660168379523e+00
3.058241671201072222e+03 5.623413251903491172e+00
3.299185038526681637e+03 1.000000000000000000e+01
3.549042606072460785e+03 1.778279410038922848e+01
3.814724936606604388e+03 3.162277660168379256e+01
4.102289124287338382e+03 5.623413251903490817e+01
4.418599684635625636e+03 1.000000000000000000e+02
4.766840251188755246e+03 1.778279410038922776e+02
5.165558597092912350e+03 3.162277660168379612e+02
