# Temperature (K), Pressure (bars)
1.544209979675969180e+03 9.999999999999999547e-07
1.557917948723018299e+03 1.778279410038922901e-06
1.571625917800944990e+03 3.162277660168379191e-06
1.599168614762284278e+03 5.623413251903491208e-06
1.637585015633296507e+03 1.000000000000000082e-05
1.685375789436980767e+03 1.778279410038922901e-05
1.751592151859100341e+03 3.162277660168379530e-05
1.820298723147129749e+03 5.623413251903490700e-05
1.876517108320525722e+03 1.000000000000000048e-04
1.925912494822129474e+03 1.778279410038922698e-04
1.969411664228402287e+03 3.162277660168379394e-04
2.007591062080457959e+03 5.623413251903490971e-04
2.042905027294977572e+03 1.000000000000000021e-03
2.075938584397772956e+03 1.778279410038922752e-03
2.108434862805332159e+03 3.162277660168379394e-03
2.142403446068062749e+03 5.623413251903490971e-03
2.180588345233506971e+03 1.000000000000000021e-02
2.224251990658693103e+03 1.778279410038922925e-02
2.279784682255705775e+03 3.162277660168379134e-02
2.345621028839433620e+03 5.623413251903491145e-02
2.442815784113502559e+03 1.000000000000000056e-01
2.601401502932244512e+03 1.778279410038922925e-01
2.782763970646595226e+03 3.162277660168379412e-01
2.959556242358970849e+03 5.623413251903490728e-01
3.144887557856344756e+03 1.000000000000000000e+00
3.340405484447158415e+03 1.778279410038922759e+00
3.547760194574945217e+03 3.162277660168379523e+00
3.770074998852490808e+03 5.623413251903491172e+00
4.012016896725994229e+03 1.000000000000000000e+01
4.279364338098548615e+03 1.778279410038922848e+01
4.579086599045549519e+03 3.162277660168379256e+01
4.920329183369140992e+03 5.623413251903490817e+01
5.318973862155484312e+03 1.000000000000000000e+02
5.787758409597564423e+03 1.778279410038922776e+02
6.349249646411746653e+03 3.162277660168379612e+02
