# Temperature (K), Pressure (bars)
1.413925845175294171e+03 1.000000000000000082e-05
1.446541611215840931e+03 1.778279410038922901e-05
1.479271614044708031e+03 3.162277660168379530e-05
1.529345866282994393e+03 5.623413251903490700e-05
1.583850837860896263e+03 1.000000000000000048e-04
1.634927076521770005e+03 1.778279410038922698e-04
1.687755054097928678e+03 3.162277660168379394e-04
1.745105216968782315e+03 5.623413251903490971e-04
1.807025050325926941e+03 1.000000000000000021e-03
1.872718301829154598e+03 1.778279410038922752e-03
1.941574780077935429e+03 3.162277660168379394e-03
2.018058673690316027e+03 5.623413251903490971e-03
2.100641015901742321e+03 1.000000000000000021e-02
2.204571011318691490e+03 1.778279410038922925e-02
2.351284599516427079e+03 3.162277660168379134e-02
2.511625303387811982e+03 5.623413251903491145e-02
2.665533533546933540e+03 1.000000000000000056e-01
2.823593262231676817e+03 1.778279410038922925e-01
2.988931250135746268e+03 3.162277660168379412e-01
3.163963325722604623e+03 5.623413251903490728e-01
3.350487165617355458e+03 1.000000000000000000e+00
3.549950094470514614e+03 1.778279410038922759e+00
3.764802919892988029e+03 3.162277660168379523e+00
3.999289906417875045e+03 5.623413251903491172e+00
4.259141992526145259e+03 1.000000000000000000e+01
4.551555361776028803e+03 1.778279410038922848e+01
4.886187581022583799e+03 3.162277660168379256e+01
5.279323676413968315e+03 5.623413251903490817e+01
5.746642341933603348e+03 1.000000000000000000e+02
6.314747838926340592e+03 1.778279410038922776e+02
7.025199812178621869e+03 3.162277660168379612e+02
