# Temperature (K), Pressure (bars)
8.947437052501816197e+02 3.162277660168379394e-04
9.489942841833634475e+02 5.623413251903490971e-04
1.003244864616382870e+03 1.000000000000000021e-03
1.055318293314574476e+03 1.778279410038922752e-03
1.106629089849053344e+03 3.162277660168379394e-03
1.159150839236768661e+03 5.623413251903490971e-03
1.214755163065965007e+03 1.000000000000000021e-02
1.276839445201035460e+03 1.778279410038922925e-02
1.349949664894105808e+03 3.162277660168379134e-02
1.441278146676416782e+03 5.623413251903491145e-02
1.561312358037802369e+03 1.000000000000000056e-01
1.743874838985406768e+03 1.778279410038922925e-01
1.999110967524133684e+03 3.162277660168379412e-01
2.268332550284186709e+03 5.623413251903490728e-01
2.516587463801723970e+03 1.000000000000000000e+00
2.751686057925749537e+03 1.778279410038922759e+00
2.979250206696220175e+03 3.162277660168379523e+00
3.206126306688492150e+03 5.623413251903491172e+00
3.438971866612444956e+03 1.000000000000000000e+01
3.684135163886624468e+03 1.778279410038922848e+01
3.949802561232639619e+03 3.162277660168379256e+01
4.240774017062889470e+03 5.623413251903490817e+01
4.563833340608161052e+03 1.000000000000000000e+02
4.922427358317317157e+03 1.778279410038922776e+02
5.335941987463456826e+03 3.162277660168379612e+02
