# Temperature (K), Pressure (bars)
8.440928272532021310e+02 5.623413251903490971e-04
8.935669296450660113e+02 1.000000000000000021e-03
9.430410332975276333e+02 1.778279410038922752e-03
9.914203878320745389e+02 3.162277660168379394e-03
1.039285718786444704e+03 5.623413251903490971e-03
1.087581641484721786e+03 1.000000000000000021e-02
1.137906162686964308e+03 1.778279410038922925e-02
1.193192437278965826e+03 3.162277660168379134e-02
1.258046123811848474e+03 5.623413251903491145e-02
1.338695747562214137e+03 1.000000000000000056e-01
1.451304565093484371e+03 1.778279410038922925e-01
1.607366085018654076e+03 3.162277660168379412e-01
1.812396109498503847e+03 5.623413251903490728e-01
2.067980898607452673e+03 1.000000000000000000e+00
2.342878837094987375e+03 1.778279410038922759e+00
2.609965160007970098e+03 3.162277660168379523e+00
2.868614096533574411e+03 5.623413251903491172e+00
3.122496013235489499e+03 1.000000000000000000e+01
3.378606097047113053e+03 1.778279410038922848e+01
3.646242822793336018e+03 3.162277660168379256e+01
3.931485833090755023e+03 5.623413251903490817e+01
4.241306084051597281e+03 1.000000000000000000e+02
4.578848525683749358e+03 1.778279410038922776e+02
4.961454031338663299e+03 3.162277660168379612e+02
