# Temperature (K), Pressure (bars)
8.532928057332341041e+02 5.623413251903490971e-04
8.909853809059885634e+02 1.000000000000000021e-03
9.286779568556620461e+02 1.778279410038922752e-03
9.666160890847803557e+02 3.162277660168379394e-03
1.006458194062658777e+03 5.623413251903490971e-03
1.047765420880506554e+03 1.000000000000000021e-02
1.089941452602933396e+03 1.778279410038922925e-02
1.135301524860744166e+03 3.162277660168379134e-02
1.186018014792298800e+03 5.623413251903491145e-02
1.249385223810621255e+03 1.000000000000000056e-01
1.326436309320664805e+03 1.778279410038922925e-01
1.452860826804983162e+03 3.162277660168379412e-01
1.671625718622781505e+03 5.623413251903490728e-01
1.939362378382871384e+03 1.000000000000000000e+00
2.214917179984303857e+03 1.778279410038922759e+00
2.492933558734872349e+03 3.162277660168379523e+00
2.763072355494186013e+03 5.623413251903491172e+00
3.026051072736120659e+03 1.000000000000000000e+01
3.288049537892474291e+03 1.778279410038922848e+01
3.558613169406908582e+03 3.162277660168379256e+01
3.844214081126011479e+03 5.623413251903490817e+01
4.152024161007464500e+03 1.000000000000000000e+02
4.485540163448999920e+03 1.778279410038922776e+02
4.861209999108049487e+03 3.162277660168379612e+02
