# Temperature (K), Pressure (bars)
9.398978962639089332e+02 5.623413251903490700e-05
9.955928814280085817e+02 1.000000000000000048e-04
1.051287868124735951e+03 1.778279410038922698e-04
1.105475600057797237e+03 3.162277660168379394e-04
1.159237812521741262e+03 5.623413251903490971e-04
1.214603844633793869e+03 1.000000000000000021e-03
1.272411500888352521e+03 1.778279410038922752e-03
1.334942679512197401e+03 3.162277660168379394e-03
1.405276268565671899e+03 5.623413251903490971e-03
1.489479995788513406e+03 1.000000000000000021e-02
1.593476056498256185e+03 1.778279410038922925e-02
1.733937879461925377e+03 3.162277660168379134e-02
1.932119743249429348e+03 5.623413251903491145e-02
2.163758566822242756e+03 1.000000000000000056e-01
2.386529419202156078e+03 1.778279410038922925e-01
2.592224050373099089e+03 3.162277660168379412e-01
2.788923784931231239e+03 5.623413251903490728e-01
2.983061663786825193e+03 1.000000000000000000e+00
3.179586864228605464e+03 1.778279410038922759e+00
3.383006936008701814e+03 3.162277660168379523e+00
3.598066663610410160e+03 5.623413251903491172e+00
3.829677745231962035e+03 1.000000000000000000e+01
4.083152341827982582e+03 1.778279410038922848e+01
4.366724511986404650e+03 3.162277660168379256e+01
4.686014372068207194e+03 5.623413251903490817e+01
5.049926235776975773e+03 1.000000000000000000e+02
5.462641648251520564e+03 1.778279410038922776e+02
5.953557580850119848e+03 3.162277660168379612e+02
