# Temperature (K), Pressure (bars)
1.661939377301785726e+03 9.999999999999999547e-07
1.667750198824654944e+03 1.778279410038922901e-06
1.673561020351516618e+03 3.162277660168379191e-06
1.684525311898392374e+03 5.623413251903491208e-06
1.703128696696832776e+03 1.000000000000000082e-05
1.728949512296039302e+03 1.778279410038922901e-05
1.759475784594179459e+03 3.162277660168379530e-05
1.794287025765362159e+03 5.623413251903490700e-05
1.834224802223641291e+03 1.000000000000000048e-04
1.878266838709395415e+03 1.778279410038922698e-04
1.925897547523799858e+03 3.162277660168379394e-04
1.977096123196277404e+03 5.623413251903490971e-04
2.032167752420505167e+03 1.000000000000000021e-03
2.092230529063474933e+03 1.778279410038922752e-03
2.157371983032196113e+03 3.162277660168379394e-03
2.232643280531674918e+03 5.623413251903490971e-03
2.330935176893658536e+03 1.000000000000000021e-02
2.452378845937358165e+03 1.778279410038922925e-02
2.584288818877449557e+03 3.162277660168379134e-02
2.722319967581463516e+03 5.623413251903491145e-02
2.868648331041470101e+03 1.000000000000000056e-01
3.025369717919983941e+03 1.778279410038922925e-01
3.194711490469046566e+03 3.162277660168379412e-01
3.378276349788466177e+03 5.623413251903490728e-01
3.576911740381759955e+03 1.000000000000000000e+00
3.792366202523086031e+03 1.778279410038922759e+00
4.028816470203759309e+03 3.162277660168379523e+00
4.292793434311552119e+03 5.623413251903491172e+00
4.593164712239886285e+03 1.000000000000000000e+01
4.942491045747926364e+03 1.778279410038922848e+01
5.359648550479006190e+03 3.162277660168379256e+01
5.871977089721502125e+03 5.623413251903490817e+01
6.525101077455541599e+03 1.000000000000000000e+02
7.396288327171700075e+03 1.778279410038922776e+02
8.605116610086914079e+03 3.162277660168379612e+02
