# Temperature (K), Pressure (bars)
2.174468737118139416e+03 9.999999999999999547e-07
2.189741520327353101e+03 1.778279410038922901e-06
2.205014303536750504e+03 3.162277660168379191e-06
2.219868710111404198e+03 5.623413251903491208e-06
2.236359710752522915e+03 1.000000000000000082e-05
2.254957135923814349e+03 1.778279410038922901e-05
2.275144780871422881e+03 3.162277660168379530e-05
2.296772177333066793e+03 5.623413251903490700e-05
2.319387848857557856e+03 1.000000000000000048e-04
2.342447446012524779e+03 1.778279410038922698e-04
2.366457311947374365e+03 3.162277660168379394e-04
2.393319606311654297e+03 5.623413251903490971e-04
2.425205767445448600e+03 1.000000000000000021e-03
2.463591395636475227e+03 1.778279410038922752e-03
2.510339395769274233e+03 3.162277660168379394e-03
2.567239445995598544e+03 5.623413251903490971e-03
2.639021313935303624e+03 1.000000000000000021e-02
2.733792951837128385e+03 1.778279410038922925e-02
2.850491299801509740e+03 3.162277660168379134e-02
2.982030635441283266e+03 5.623413251903491145e-02
3.127707307756416412e+03 1.000000000000000056e-01
3.290909910137312181e+03 1.778279410038922925e-01
3.475424391377404845e+03 3.162277660168379412e-01
3.684794430389371428e+03 5.623413251903490728e-01
3.922434399555421805e+03 1.000000000000000000e+00
4.194461409712948807e+03 1.778279410038922759e+00
4.513328748445657766e+03 3.162277660168379523e+00
4.885329614695755481e+03 5.623413251903491172e+00
5.362270777525818630e+03 1.000000000000000000e+01
6.015135704270285714e+03 1.778279410038922848e+01
6.979254520023883742e+03 3.162277660168379256e+01
8.412405598485929659e+03 5.623413251903490817e+01
1.027037841122752798e+04 1.000000000000000000e+02
1.250427081866658591e+04 1.778279410038922776e+02
1.516824695631376562e+04 3.162277660168379612e+02
