# Temperature (K), Pressure (bars)
1.461218241410542760e+03 9.999999999999999547e-07
1.488432450783729337e+03 1.778279410038922901e-06
1.515646660159967269e+03 3.162277660168379191e-06
1.546497173181893686e+03 5.623413251903491208e-06
1.581049270059272203e+03 1.000000000000000082e-05
1.620268111881536242e+03 1.778279410038922901e-05
1.664146937955939848e+03 3.162277660168379530e-05
1.711719752785228593e+03 5.623413251903490700e-05
1.762402153620865192e+03 1.000000000000000048e-04
1.817696134570266167e+03 1.778279410038922698e-04
1.877134637951732657e+03 3.162277660168379394e-04
1.939564224488951140e+03 5.623413251903490971e-04
2.007174013889133448e+03 1.000000000000000021e-03
2.082006315054445167e+03 1.778279410038922752e-03
2.173686852971366534e+03 3.162277660168379394e-03
2.290163006738742752e+03 5.623413251903490971e-03
2.419831981492741761e+03 1.000000000000000021e-02
2.553704712040436789e+03 1.778279410038922925e-02
2.693971039971121172e+03 3.162277660168379134e-02
2.842322888672721092e+03 5.623413251903491145e-02
3.000874802998751875e+03 1.000000000000000056e-01
3.171817556854513896e+03 1.778279410038922925e-01
3.356475224845459707e+03 3.162277660168379412e-01
3.555549944659082485e+03 5.623413251903490728e-01
3.771328505261393275e+03 1.000000000000000000e+00
4.009112386909620454e+03 1.778279410038922759e+00
4.277048658822013749e+03 3.162277660168379523e+00
4.586577655070133915e+03 5.623413251903491172e+00
4.951438326461113320e+03 1.000000000000000000e+01
5.402683511682523203e+03 1.778279410038922848e+01
5.987509164898345261e+03 3.162277660168379256e+01
6.794554025425525651e+03 5.623413251903490817e+01
7.967324409300549632e+03 1.000000000000000000e+02
9.615275574854740626e+03 1.778279410038922776e+02
1.165321655748003650e+04 3.162277660168379612e+02
