# Temperature (K), Pressure (bars)
1.039857068642228114e+03 5.623413251903490700e-05
1.087101152862379877e+03 1.000000000000000048e-04
1.134345238920646580e+03 1.778279410038922698e-04
1.180855047590884624e+03 3.162277660168379394e-04
1.229134809695123295e+03 5.623413251903490971e-04
1.280040796810624215e+03 1.000000000000000021e-03
1.333845272615158365e+03 1.778279410038922752e-03
1.391920973898303373e+03 3.162277660168379394e-03
1.455551234918455521e+03 5.623413251903490971e-03
1.528847469245523598e+03 1.000000000000000021e-02
1.614082572785679304e+03 1.778279410038922925e-02
1.722561553781930343e+03 3.162277660168379134e-02
1.859639328289902778e+03 5.623413251903491145e-02
2.028455238041980465e+03 1.000000000000000056e-01
2.239261055586504881e+03 1.778279410038922925e-01
2.460588256892358913e+03 3.162277660168379412e-01
2.667083716943629497e+03 5.623413251903490728e-01
2.868332844140997167e+03 1.000000000000000000e+00
3.070413982411691904e+03 1.778279410038922759e+00
3.277764000405114075e+03 3.162277660168379523e+00
3.494457692868341837e+03 5.623413251903491172e+00
3.725083833089175641e+03 1.000000000000000000e+01
3.974887863442254456e+03 1.778279410038922848e+01
4.251722825262597325e+03 3.162277660168379256e+01
4.561157523211662919e+03 5.623413251903490817e+01
4.911298014772607530e+03 1.000000000000000000e+02
5.306278111711552810e+03 1.778279410038922776e+02
5.771178791900374563e+03 3.162277660168379612e+02
