# Temperature (K), Pressure (bars)
7.928170410203915708e+02 3.162277660168379394e-04
8.352572915565219773e+02 5.623413251903490971e-04
8.776975431666536451e+02 1.000000000000000021e-03
9.200193887927912328e+02 1.778279410038922752e-03
9.625950942732954445e+02 3.162277660168379394e-03
1.006396467455441780e+03 5.623413251903490971e-03
1.051626849195762588e+03 1.000000000000000021e-02
1.100024875201521127e+03 1.778279410038922925e-02
1.155043945856057007e+03 3.162277660168379134e-02
1.222940668398571688e+03 5.623413251903491145e-02
1.308429039922129732e+03 1.000000000000000056e-01
1.427968199346702022e+03 1.778279410038922925e-01
1.617329253405809368e+03 3.162277660168379412e-01
1.871837986347796914e+03 5.623413251903490728e-01
2.146160509615331193e+03 1.000000000000000000e+00
2.416634135647180301e+03 1.778279410038922759e+00
2.678330925040367219e+03 3.162277660168379523e+00
2.930649650645761994e+03 5.623413251903491172e+00
3.179372233473789947e+03 1.000000000000000000e+01
3.432206128549125424e+03 1.778279410038922848e+01
3.698502662642486939e+03 3.162277660168379256e+01
3.983884331000089787e+03 5.623413251903490817e+01
4.295146159292555240e+03 1.000000000000000000e+02
4.635446994572474068e+03 1.778279410038922776e+02
5.022313683146988296e+03 3.162277660168379612e+02
