# Temperature (K), Pressure (bars)
9.784416849007319570e+02 1.778279410038922901e-05
1.025434858014468318e+03 3.162277660168379530e-05
1.072428031183718076e+03 5.623413251903490700e-05
1.120155181707630618e+03 1.000000000000000048e-04
1.169017957052041083e+03 1.778279410038922698e-04
1.220691123800487276e+03 3.162277660168379394e-04
1.275293474172742663e+03 5.623413251903490971e-04
1.332811062820935149e+03 1.000000000000000021e-03
1.395372190776188745e+03 1.778279410038922752e-03
1.465924736163731723e+03 3.162277660168379394e-03
1.551262411344917382e+03 5.623413251903490971e-03
1.655969668327053796e+03 1.000000000000000021e-02
1.795945329193056295e+03 1.778279410038922925e-02
1.987749750358878373e+03 3.162277660168379134e-02
2.201673885264609453e+03 5.623413251903491145e-02
2.403838107512799979e+03 1.000000000000000056e-01
2.593600410554762675e+03 1.778279410038922925e-01
2.777726300820502729e+03 3.162277660168379412e-01
2.961461774301311380e+03 5.623413251903490728e-01
3.148485795605448402e+03 1.000000000000000000e+00
3.342096973441792215e+03 1.778279410038922759e+00
3.546257349611171776e+03 3.162277660168379523e+00
3.765516617629874872e+03 5.623413251903491172e+00
4.004797202906564962e+03 1.000000000000000000e+01
4.269635132296378288e+03 1.778279410038922848e+01
4.566688814796027145e+03 3.162277660168379256e+01
4.904888886343536797e+03 5.623413251903490817e+01
5.300575071252209455e+03 1.000000000000000000e+02
5.765038270289670436e+03 1.778279410038922776e+02
6.319523709412637800e+03 3.162277660168379612e+02
