# Temperature (K), Pressure (bars)
2.120171232123213031e+03 9.999999999999999547e-07
2.139587921635879411e+03 1.778279410038922901e-06
2.159004611148546246e+03 3.162277660168379191e-06
2.181964911475271492e+03 5.623413251903491208e-06
2.209087728830334527e+03 1.000000000000000082e-05
2.240032909501512222e+03 1.778279410038922901e-05
2.274385161152438286e+03 3.162277660168379530e-05
2.311246417962399846e+03 5.623413251903490700e-05
2.348504514542345987e+03 1.000000000000000048e-04
2.383524958310219972e+03 1.778279410038922698e-04
2.415134428036379177e+03 3.162277660168379394e-04
2.443946758954245524e+03 5.623413251903490971e-04
2.471462933322102344e+03 1.000000000000000021e-03
2.499419836735342869e+03 1.778279410038922752e-03
2.530196260339331275e+03 3.162277660168379394e-03
2.565913368973422621e+03 5.623413251903490971e-03
2.609948691128814062e+03 1.000000000000000021e-02
2.663804320292167176e+03 1.778279410038922925e-02
2.735466834649371322e+03 3.162277660168379134e-02
2.839691278411243275e+03 5.623413251903491145e-02
2.971818419208109844e+03 1.000000000000000056e-01
3.120329835902953164e+03 1.778279410038922925e-01
3.285443969710107922e+03 3.162277660168379412e-01
3.469900443115946473e+03 5.623413251903490728e-01
3.675593163848744098e+03 1.000000000000000000e+00
3.904246328954251567e+03 1.778279410038922759e+00
4.159532494786600182e+03 3.162277660168379523e+00
4.448886099223779638e+03 5.623413251903491172e+00
4.784254513099838732e+03 1.000000000000000000e+01
5.180214646803618052e+03 1.778279410038922848e+01
5.668090211060010006e+03 3.162277660168379256e+01
6.291273144997651798e+03 5.623413251903490817e+01
7.122601597447326640e+03 1.000000000000000000e+02
8.291559439553779157e+03 1.778279410038922776e+02
9.939530523292134603e+03 3.162277660168379612e+02
