# Temperature (K), Pressure (bars)
1.450138091693831029e+03 9.999999999999999547e-07
1.495020049202294558e+03 1.778279410038922901e-06
1.539902006710763544e+03 3.162277660168379191e-06
1.583517593351130017e+03 5.623413251903491208e-06
1.627560505664079983e+03 1.000000000000000082e-05
1.675419818215831583e+03 1.778279410038922901e-05
1.728783970797993106e+03 3.162277660168379530e-05
1.785870367668997005e+03 5.623413251903490700e-05
1.847212797709868937e+03 1.000000000000000048e-04
1.912764222897987111e+03 1.778279410038922698e-04
1.981611909439968031e+03 3.162277660168379394e-04
2.054344627725294231e+03 5.623413251903490971e-04
2.135557718910806216e+03 1.000000000000000021e-03
2.234048274495443366e+03 1.778279410038922752e-03
2.348209734537815166e+03 3.162277660168379394e-03
2.470722321702565296e+03 5.623413251903490971e-03
2.600124449347783411e+03 1.000000000000000021e-02
2.737357732328744078e+03 1.778279410038922925e-02
2.883866997337977864e+03 3.162277660168379134e-02
3.041792055197171067e+03 5.623413251903491145e-02
3.214229477118334216e+03 1.000000000000000056e-01
3.404911803777620662e+03 1.778279410038922925e-01
3.617673845719958535e+03 3.162277660168379412e-01
3.857692491544160930e+03 5.623413251903490728e-01
4.135818134743893097e+03 1.000000000000000000e+00
4.443398519643606960e+03 1.778279410038922759e+00
4.832625020627124286e+03 3.162277660168379523e+00
5.361590494301849503e+03 5.623413251903491172e+00
6.133692796764735249e+03 1.000000000000000000e+01
7.287474680161820288e+03 1.778279410038922848e+01
8.923066241650094526e+03 3.162277660168379256e+01
1.088601959181834900e+04 5.623413251903490817e+01
1.324293302071702965e+04 1.000000000000000000e+02
1.611747960526869792e+04 1.778279410038922776e+02
1.954590076495838730e+04 3.162277660168379612e+02
