# Temperature (K), Pressure (bars)
8.983709132355190832e+02 5.623413251903490971e-04
9.476384074087952740e+02 1.000000000000000021e-03
9.969059030293029764e+02 1.778279410038922752e-03
1.045080531317679061e+03 3.162277660168379394e-03
1.093248742390415600e+03 5.623413251903490971e-03
1.142302350286841147e+03 1.000000000000000021e-02
1.193044854519232786e+03 1.778279410038922925e-02
1.247427324391031561e+03 3.162277660168379134e-02
1.309313936331442619e+03 5.623413251903491145e-02
1.385171680580036991e+03 1.000000000000000056e-01
1.491265993698160173e+03 1.778279410038922925e-01
1.643227150012480251e+03 3.162277660168379412e-01
1.847245662408987755e+03 5.623413251903490728e-01
2.099212447267055268e+03 1.000000000000000000e+00
2.370478586041814651e+03 1.778279410038922759e+00
2.635508383733145820e+03 3.162277660168379523e+00
2.891834844969091137e+03 5.623413251903491172e+00
3.144149353054133826e+03 1.000000000000000000e+01
3.399389916090797215e+03 1.778279410038922848e+01
3.666529178981369114e+03 3.162277660168379256e+01
3.951814734807306650e+03 5.623413251903490817e+01
4.262193677634755659e+03 1.000000000000000000e+02
4.600796724856521905e+03 1.778279410038922776e+02
4.985007871284960856e+03 3.162277660168379612e+02
