# Temperature (K), Pressure (bars)
9.082362236792613430e+02 5.623413251903490700e-05
9.659018586731093592e+02 1.000000000000000048e-04
1.023567493794606321e+03 1.778279410038922698e-04
1.079405428861683504e+03 3.162277660168379394e-04
1.133370913821571776e+03 5.623413251903490971e-04
1.184141416957987076e+03 1.000000000000000021e-03
1.231917302288422434e+03 1.778279410038922752e-03
1.273471373206357612e+03 3.162277660168379394e-03
1.310776297073914975e+03 5.623413251903490971e-03
1.351512922042149967e+03 1.000000000000000021e-02
1.396657340828823408e+03 1.778279410038922925e-02
1.476519842368029913e+03 3.162277660168379134e-02
1.631814466761470158e+03 5.623413251903491145e-02
1.824502410221241917e+03 1.000000000000000056e-01
2.016950425653445109e+03 1.778279410038922925e-01
2.234225559306050855e+03 3.162277660168379412e-01
2.466635082957896429e+03 5.623413251903490728e-01
2.689557294821705909e+03 1.000000000000000000e+00
2.906350954722713595e+03 1.778279410038922759e+00
3.122557020436088351e+03 3.162277660168379523e+00
3.343301556400732807e+03 5.623413251903491172e+00
3.573973728272552762e+03 1.000000000000000000e+01
3.820288163043331679e+03 1.778279410038922848e+01
4.090111701185960101e+03 3.162277660168379256e+01
4.388657630274352414e+03 5.623413251903490817e+01
4.723148013072129288e+03 1.000000000000000000e+02
5.097154299688328138e+03 1.778279410038922776e+02
5.532218812087915467e+03 3.162277660168379612e+02
