# Temperature (K), Pressure (bars)
9.652410019969008772e+02 3.162277660168379394e-04
1.008075655566150090e+03 5.623413251903490971e-04
1.050910307777156049e+03 1.000000000000000021e-03
1.083700505034325715e+03 1.778279410038922752e-03
1.108041076433894432e+03 3.162277660168379394e-03
1.129634838021333735e+03 5.623413251903490971e-03
1.152045797590878237e+03 1.000000000000000021e-02
1.177742740894750796e+03 1.778279410038922925e-02
1.208749030857792150e+03 3.162277660168379134e-02
1.246531254817218496e+03 5.623413251903491145e-02
1.294414038262751774e+03 1.000000000000000056e-01
1.355383280904953608e+03 1.778279410038922925e-01
1.426454271459279198e+03 3.162277660168379412e-01
1.517169869671713059e+03 5.623413251903490728e-01
1.636388261588896285e+03 1.000000000000000000e+00
1.806203324670698976e+03 1.778279410038922759e+00
2.055503544213957412e+03 3.162277660168379523e+00
2.347118397998292494e+03 5.623413251903491172e+00
2.639468535074800002e+03 1.000000000000000000e+01
2.929516533174722099e+03 1.778279410038922848e+01
3.220058930062062700e+03 3.162277660168379256e+01
3.515766849295864176e+03 5.623413251903490817e+01
3.824558295475891100e+03 1.000000000000000000e+02
4.151510027849186372e+03 1.778279410038922776e+02
4.511102365855887911e+03 3.162277660168379612e+02
