# Temperature (K), Pressure (bars)
2.201147748338853489e+03 9.999999999999999547e-07
2.217820621655439936e+03 1.778279410038922901e-06
2.234493494972025928e+03 3.162277660168379191e-06
2.261724904752218663e+03 5.623413251903491208e-06
2.294836662398339286e+03 1.000000000000000082e-05
2.331578594607479317e+03 1.778279410038922901e-05
2.372736117354765156e+03 3.162277660168379530e-05
2.417107284699763568e+03 5.623413251903490700e-05
2.463712596100360315e+03 1.000000000000000048e-04
2.510166761664550904e+03 1.778279410038922698e-04
2.553944594329682786e+03 3.162277660168379394e-04
2.593826450022719200e+03 5.623413251903490971e-04
2.629566204410535192e+03 1.000000000000000021e-03
2.661852958318740548e+03 1.778279410038922752e-03
2.693374830764927992e+03 3.162277660168379394e-03
2.727754242028018780e+03 5.623413251903490971e-03
2.770637186887281132e+03 1.000000000000000021e-02
2.824511139139184252e+03 1.778279410038922925e-02
2.897330236039509600e+03 3.162277660168379134e-02
3.005127741776006133e+03 5.623413251903491145e-02
3.144140989270103091e+03 1.000000000000000056e-01
3.303979308243565811e+03 1.778279410038922925e-01
3.486805960179014164e+03 3.162277660168379412e-01
3.696846282141549636e+03 5.623413251903490728e-01
3.937898818418564133e+03 1.000000000000000000e+00
4.216028790642325475e+03 1.778279410038922759e+00
4.532384767613618351e+03 3.162277660168379523e+00
4.911103961442546279e+03 5.623413251903491172e+00
5.398844722600790192e+03 1.000000000000000000e+01
6.068415780575406643e+03 1.778279410038922848e+01
7.052307741923350477e+03 3.162277660168379256e+01
8.511993366470182082e+03 5.623413251903490817e+01
1.000000000000000000e+04 1.000000000000000000e+02
1.000000000000000000e+04 1.778279410038922776e+02
1.000000000000000000e+04 3.162277660168379612e+02
