# Temperature (K), Pressure (bars)
1.544701688079934002e+03 1.778279410038922901e-06
1.567730886599353198e+03 3.162277660168379191e-06
1.590760087896910818e+03 5.623413251903491208e-06
1.620074566533419329e+03 1.000000000000000082e-05
1.654933958343498716e+03 1.778279410038922901e-05
1.695325651025174238e+03 3.162277660168379530e-05
1.740859360111964861e+03 5.623413251903490700e-05
1.789877266548892749e+03 1.000000000000000048e-04
1.842961421411736410e+03 1.778279410038922698e-04
1.899902022052059465e+03 3.162277660168379394e-04
1.959579398145619734e+03 5.623413251903490971e-04
2.023398881949152383e+03 1.000000000000000021e-03
2.091791615113238095e+03 1.778279410038922752e-03
2.169723197776156667e+03 3.162277660168379394e-03
2.269254319206236232e+03 5.623413251903490971e-03
2.388981043063967718e+03 1.000000000000000021e-02
2.517781894790237857e+03 1.778279410038922925e-02
2.652636962587363541e+03 3.162277660168379134e-02
2.795113401117149806e+03 5.623413251903491145e-02
2.946910325512737018e+03 1.000000000000000056e-01
3.110045942822352572e+03 1.778279410038922925e-01
3.286512697806316282e+03 3.162277660168379412e-01
3.477712274786868875e+03 5.623413251903490728e-01
3.685056484975898002e+03 1.000000000000000000e+00
3.911760461810830293e+03 1.778279410038922759e+00
4.163776163685890424e+03 3.162277660168379523e+00
4.449860627075255252e+03 5.623413251903491172e+00
4.782424746529211916e+03 1.000000000000000000e+01
5.178087724349109521e+03 1.778279410038922848e+01
5.667636993026677374e+03 3.162277660168379256e+01
6.299033602780522415e+03 5.623413251903490817e+01
7.158019598310883339e+03 1.000000000000000000e+02
8.383820639012048559e+03 1.778279410038922776e+02
1.000000000000000000e+04 3.162277660168379612e+02
