# Temperature (K), Pressure (bars)
2.339193793176761574e+03 9.999999999999999547e-07
2.355496903715687949e+03 1.778279410038922901e-06
2.371800014254674807e+03 3.162277660168379191e-06
2.393885187844942266e+03 5.623413251903491208e-06
2.421520097917134990e+03 1.000000000000000082e-05
2.451627770392327875e+03 1.778279410038922901e-05
2.483463800828840704e+03 3.162277660168379530e-05
2.516685245924945775e+03 5.623413251903490700e-05
2.550910656092278714e+03 1.000000000000000048e-04
2.586247930126236497e+03 1.778279410038922698e-04
2.622044416670069040e+03 3.162277660168379394e-04
2.656202398419965903e+03 5.623413251903490971e-04
2.686014512390165692e+03 1.000000000000000021e-03
2.710387818976926610e+03 1.778279410038922752e-03
2.731121821050879134e+03 3.162277660168379394e-03
2.753136273056219125e+03 5.623413251903490971e-03
2.780984088695416176e+03 1.000000000000000021e-02
2.819967216762112912e+03 1.778279410038922925e-02
2.871039803516579013e+03 3.162277660168379134e-02
2.943921224376456848e+03 5.623413251903491145e-02
3.057522117509107375e+03 1.000000000000000056e-01
3.203277238387033321e+03 1.778279410038922925e-01
3.367188810675770583e+03 3.162277660168379412e-01
3.552071235423047710e+03 5.623413251903490728e-01
3.762054533051668841e+03 1.000000000000000000e+00
4.000999139474410185e+03 1.778279410038922759e+00
4.273810984906665908e+03 3.162277660168379523e+00
4.589577874616903500e+03 5.623413251903491172e+00
4.955261623758369751e+03 1.000000000000000000e+01
5.407654534379234974e+03 1.778279410038922848e+01
5.994016793423500530e+03 3.162277660168379256e+01
6.802812884583961932e+03 5.623413251903490817e+01
7.980096986690632548e+03 1.000000000000000000e+02
9.633885913849397184e+03 1.778279410038922776e+02
1.167696272539572965e+04 3.162277660168379612e+02
