# Temperature (K), Pressure (bars)
2.339918184858528548e+03 9.999999999999999547e-07
2.344894840530429974e+03 1.778279410038922901e-06
2.349871496202330945e+03 3.162277660168379191e-06
2.374726643083094586e+03 5.623413251903491208e-06
2.403990522632404918e+03 1.000000000000000082e-05
2.434673713367583787e+03 1.778279410038922901e-05
2.469853283895368349e+03 3.162277660168379530e-05
2.509167334641999332e+03 5.623413251903490700e-05
2.553645912745340411e+03 1.000000000000000048e-04
2.601114478698958010e+03 1.778279410038922698e-04
2.650025907840336913e+03 3.162277660168379394e-04
2.697894972253113338e+03 5.623413251903490971e-04
2.741590399813564090e+03 1.000000000000000021e-03
2.779609586887138903e+03 1.778279410038922752e-03
2.814263276271426093e+03 3.162277660168379394e-03
2.853056508452637900e+03 5.623413251903490971e-03
2.902027344683076535e+03 1.000000000000000021e-02
2.962144683366168010e+03 1.778279410038922925e-02
3.024864244071759913e+03 3.162277660168379134e-02
3.110335040301127719e+03 5.623413251903491145e-02
3.253243160829509179e+03 1.000000000000000056e-01
3.435382841777451176e+03 1.778279410038922925e-01
3.628150225316478100e+03 3.162277660168379412e-01
3.851376295106697398e+03 5.623413251903490728e-01
4.112969005761444350e+03 1.000000000000000000e+00
4.412589821394705723e+03 1.778279410038922759e+00
4.787670018306129350e+03 3.162277660168379523e+00
5.290359658795443465e+03 5.623413251903491172e+00
6.032409048803673613e+03 1.000000000000000000e+01
7.191485725016167635e+03 1.778279410038922848e+01
8.811090231394926377e+03 3.162277660168379256e+01
1.000000000000000000e+04 5.623413251903490817e+01
1.000000000000000000e+04 1.000000000000000000e+02
1.000000000000000000e+04 1.778279410038922776e+02
1.000000000000000000e+04 3.162277660168379612e+02
