# Temperature (K), Pressure (bars)
1.643808419447689857e+03 9.999999999999999547e-07
1.656923680634862421e+03 1.778279410038922901e-06
1.670038941822458582e+03 3.162277660168379191e-06
1.689841427757690781e+03 5.623413251903491208e-06
1.718200109813679319e+03 1.000000000000000082e-05
1.752558495491654639e+03 1.778279410038922901e-05
1.793495524838546771e+03 3.162277660168379530e-05
1.840390433603663041e+03 5.623413251903490700e-05
1.890728857946581684e+03 1.000000000000000048e-04
1.944111246678270163e+03 1.778279410038922698e-04
2.000915075614180751e+03 3.162277660168379394e-04
2.061106200501505555e+03 5.623413251903490971e-04
2.125517649661262112e+03 1.000000000000000021e-03
2.194348130453207887e+03 1.778279410038922752e-03
2.275632894134922026e+03 3.162277660168379394e-03
2.379522483418240881e+03 5.623413251903490971e-03
2.497460752636150573e+03 1.000000000000000021e-02
2.621593371452312567e+03 1.778279410038922925e-02
2.754245063348144868e+03 3.162277660168379134e-02
2.896623749559259068e+03 5.623413251903491145e-02
3.050354819224185121e+03 1.000000000000000056e-01
3.217621015997804534e+03 1.778279410038922925e-01
3.400967460139374452e+03 3.162277660168379412e-01
3.602765991515914266e+03 5.623413251903490728e-01
3.825753172638810611e+03 1.000000000000000000e+00
4.074717561521401876e+03 1.778279410038922759e+00
4.358346331059648946e+03 3.162277660168379523e+00
4.681819076797573871e+03 5.623413251903491172e+00
5.075705480881892981e+03 1.000000000000000000e+01
5.575771969067586724e+03 1.778279410038922848e+01
6.243372045776875893e+03 3.162277660168379256e+01
7.178746951025258568e+03 5.623413251903490817e+01
8.545830874702542133e+03 1.000000000000000000e+02
1.037752761621089485e+04 1.778279410038922776e+02
1.258497792085102810e+04 3.162277660168379612e+02
