# Temperature (K), Pressure (bars)
9.292630525179624783e+02 9.999999999999999547e-07
9.462759638198635912e+02 1.778279410038922901e-06
9.632888751428081378e+02 3.162277660168379191e-06
9.846528981082979044e+02 5.623413251903491208e-06
1.011646472154917774e+03 1.000000000000000082e-05
1.042646913965310205e+03 1.778279410038922901e-05
1.077634487638485098e+03 3.162277660168379530e-05
1.117169099254557068e+03 5.623413251903490700e-05
1.160424463932062508e+03 1.000000000000000048e-04
1.207854274053546305e+03 1.778279410038922698e-04
1.259802859248099139e+03 3.162277660168379394e-04
1.316635278419617862e+03 5.623413251903490971e-04
1.382318393175885831e+03 1.000000000000000021e-03
1.458543137067166754e+03 1.778279410038922752e-03
1.546458420943764622e+03 3.162277660168379394e-03
1.651132263837872188e+03 5.623413251903490971e-03
1.764709851958918534e+03 1.000000000000000021e-02
1.889519495969427680e+03 1.778279410038922925e-02
2.052806692579864375e+03 3.162277660168379134e-02
2.249304810013539281e+03 5.623413251903491145e-02
2.444695804299738484e+03 1.000000000000000056e-01
2.629224296919522203e+03 1.778279410038922925e-01
2.810350746320032158e+03 3.162277660168379412e-01
2.992585681508121979e+03 5.623413251903490728e-01
3.178901881031737503e+03 1.000000000000000000e+00
3.372332648932334450e+03 1.778279410038922759e+00
3.576961628174806719e+03 3.162277660168379523e+00
3.797453198283384154e+03 5.623413251903491172e+00
4.038786132886637006e+03 1.000000000000000000e+01
4.306643156729591283e+03 1.778279410038922848e+01
4.607963476332462051e+03 3.162277660168379256e+01
4.952119113704706251e+03 5.623413251903490817e+01
5.355963809244100048e+03 1.000000000000000000e+02
5.831795119616726879e+03 1.778279410038922776e+02
6.403599745673978759e+03 3.162277660168379612e+02
