# Temperature (K), Pressure (bars)
2.345086825171421879e+03 9.999999999999999547e-07
2.356612893097330016e+03 1.778279410038922901e-06
2.368138961023238608e+03 3.162277660168379191e-06
2.390594486571580092e+03 5.623413251903491208e-06
2.419116223664768768e+03 1.000000000000000082e-05
2.451134419814102330e+03 1.778279410038922901e-05
2.485348437601691785e+03 3.162277660168379530e-05
2.523084925638946970e+03 5.623413251903490700e-05
2.565608951929817067e+03 1.000000000000000048e-04
2.612783056727974781e+03 1.778279410038922698e-04
2.665058169946090857e+03 3.162277660168379394e-04
2.721476219493511053e+03 5.623413251903490971e-04
2.781783757329639684e+03 1.000000000000000021e-03
2.844487935422318969e+03 1.778279410038922752e-03
2.906818729005265595e+03 3.162277660168379394e-03
2.966373609413710710e+03 5.623413251903490971e-03
3.024350112542719216e+03 1.000000000000000021e-02
3.079826027945526675e+03 1.778279410038922925e-02
3.139221706158119105e+03 3.162277660168379134e-02
3.189782436493753721e+03 5.623413251903491145e-02
3.259167366478414806e+03 1.000000000000000056e-01
3.416295664714666600e+03 1.778279410038922925e-01
3.626976724447981724e+03 3.162277660168379412e-01
3.859379111007508072e+03 5.623413251903490728e-01
4.146199824973512477e+03 1.000000000000000000e+00
4.458100660605436133e+03 1.778279410038922759e+00
4.855614309175492963e+03 3.162277660168379523e+00
5.404316063876759472e+03 5.623413251903491172e+00
6.243328101192050781e+03 1.000000000000000000e+01
7.539264295516499260e+03 1.778279410038922848e+01
9.253822693866995905e+03 3.162277660168379256e+01
1.000000000000000000e+04 5.623413251903490817e+01
1.000000000000000000e+04 1.000000000000000000e+02
1.000000000000000000e+04 1.778279410038922776e+02
1.000000000000000000e+04 3.162277660168379612e+02
