# Temperature (K), Pressure (bars)
1.341120762188681965e+03 3.162277660168379530e-05
1.364426844787273922e+03 5.623413251903490700e-05
1.387732931016432303e+03 1.000000000000000048e-04
1.419999282261034750e+03 1.778279410038922698e-04
1.468786509146187655e+03 3.162277660168379394e-04
1.532037875165913192e+03 5.623413251903490971e-04
1.589740648390730485e+03 1.000000000000000021e-03
1.637893474388304185e+03 1.778279410038922752e-03
1.687308691690486057e+03 3.162277660168379394e-03
1.739834541613668080e+03 5.623413251903490971e-03
1.794834550326309682e+03 1.000000000000000021e-02
1.853273846205657492e+03 1.778279410038922925e-02
1.916625233148942925e+03 3.162277660168379134e-02
1.986034004174837946e+03 5.623413251903491145e-02
2.069286029997905189e+03 1.000000000000000056e-01
2.167104651289247158e+03 1.778279410038922925e-01
2.300740000077769309e+03 3.162277660168379412e-01
2.497430856323280750e+03 5.623413251903490728e-01
2.716825709986955644e+03 1.000000000000000000e+00
2.927476533411586843e+03 1.778279410038922759e+00
3.140482806133844406e+03 3.162277660168379523e+00
3.360808563247145685e+03 5.623413251903491172e+00
3.592349981161235974e+03 1.000000000000000000e+01
3.839857824756283662e+03 1.778279410038922848e+01
4.110551155208999262e+03 3.162277660168379256e+01
4.410348413376092140e+03 5.623413251903490817e+01
4.746690080720415608e+03 1.000000000000000000e+02
5.123066486629631072e+03 1.778279410038922776e+02
5.562198196017217015e+03 3.162277660168379612e+02
