# Temperature (K), Pressure (bars)
9.138292314267033589e+02 1.000000000000000021e-03
9.527494119472476086e+02 1.778279410038922752e-03
9.916695929796225073e+02 3.162277660168379394e-03
1.031264558973215117e+03 5.623413251903490971e-03
1.072315693083372935e+03 1.000000000000000021e-02
1.114878561274056437e+03 1.778279410038922925e-02
1.159456578293308894e+03 3.162277660168379134e-02
1.207470086738303280e+03 5.623413251903491145e-02
1.261697178958262612e+03 1.000000000000000056e-01
1.326180077958047832e+03 1.778279410038922925e-01
1.409447532863628339e+03 3.162277660168379412e-01
1.554974218707108776e+03 5.623413251903490728e-01
1.789584832840779654e+03 1.000000000000000000e+00
2.066356370876279925e+03 1.778279410038922759e+00
2.348110125921395593e+03 3.162277660168379523e+00
2.628902871375086761e+03 5.623413251903491172e+00
2.903305967973611587e+03 1.000000000000000000e+01
3.174272694667828546e+03 1.778279410038922848e+01
3.450141702286369764e+03 3.162277660168379256e+01
3.737758581708691054e+03 5.623413251903490817e+01
4.044775752822377854e+03 1.000000000000000000e+02
4.375464022953132371e+03 1.778279410038922776e+02
4.745006860751211207e+03 3.162277660168379612e+02
