# Temperature (K), Pressure (bars)
2.182796643809613215e+03 9.999999999999999547e-07
2.199763118125646542e+03 1.778279410038922901e-06
2.216729592441680325e+03 3.162277660168379191e-06
2.236666346472549321e+03 5.623413251903491208e-06
2.259878272996917985e+03 1.000000000000000082e-05
2.284830354376045761e+03 1.778279410038922901e-05
2.309947340945490396e+03 3.162277660168379530e-05
2.333537073953981690e+03 5.623413251903490700e-05
2.355024287673492381e+03 1.000000000000000048e-04
2.376122282582460230e+03 1.778279410038922698e-04
2.399868709097722331e+03 3.162277660168379394e-04
2.429128153255321649e+03 5.623413251903490971e-04
2.465583380785836198e+03 1.000000000000000021e-03
2.510734396474420919e+03 1.778279410038922752e-03
2.566323696709362139e+03 3.162277660168379394e-03
2.636076137599553931e+03 5.623413251903490971e-03
2.726799659877676277e+03 1.000000000000000021e-02
2.839221537090405036e+03 1.778279410038922925e-02
2.967406127535174164e+03 3.162277660168379134e-02
3.110103274635480375e+03 5.623413251903491145e-02
3.271092420137192221e+03 1.000000000000000056e-01
3.457149911719147894e+03 1.778279410038922925e-01
3.655416140820519558e+03 3.162277660168379412e-01
3.884721463416241932e+03 5.623413251903490728e-01
4.154538790217898168e+03 1.000000000000000000e+00
4.469047986071827836e+03 1.778279410038922759e+00
4.870915293440731148e+03 3.162277660168379523e+00
5.423961182568294134e+03 5.623413251903491172e+00
6.246113878465115704e+03 1.000000000000000000e+01
7.507864620572326203e+03 1.778279410038922848e+01
9.211990778317867807e+03 3.162277660168379256e+01
1.000000000000000000e+04 5.623413251903490817e+01
1.000000000000000000e+04 1.000000000000000000e+02
1.000000000000000000e+04 1.778279410038922776e+02
1.000000000000000000e+04 3.162277660168379612e+02
