# Temperature (K), Pressure (bars)
2.121550236623730143e+03 9.999999999999999547e-07
2.122769914355770197e+03 1.778279410038922901e-06
2.123989592088135396e+03 3.162277660168379191e-06
2.125213539694997053e+03 5.623413251903491208e-06
2.129610571602636810e+03 1.000000000000000082e-05
2.140982183572062695e+03 1.778279410038922901e-05
2.160282671580268925e+03 3.162277660168379530e-05
2.184897968468163526e+03 5.623413251903490700e-05
2.211690169242738193e+03 1.000000000000000048e-04
2.239060404044568259e+03 1.778279410038922698e-04
2.266458295809146875e+03 3.162277660168379394e-04
2.294584971744161976e+03 5.623413251903490971e-04
2.324819519846403637e+03 1.000000000000000021e-03
2.358668521744096324e+03 1.778279410038922752e-03
2.397218175226717904e+03 3.162277660168379394e-03
2.442861239576893240e+03 5.623413251903490971e-03
2.496136909530532648e+03 1.000000000000000021e-02
2.564197363899436823e+03 1.778279410038922925e-02
2.661929880008254258e+03 3.162277660168379134e-02
2.785352481890675790e+03 5.623413251903491145e-02
2.922226345719707751e+03 1.000000000000000056e-01
3.071687544553555654e+03 1.778279410038922925e-01
3.236374271705058163e+03 3.162277660168379412e-01
3.418558783390401913e+03 5.623413251903490728e-01
3.619533653715316177e+03 1.000000000000000000e+00
3.840552110338984221e+03 1.778279410038922759e+00
4.085028638484224757e+03 3.162277660168379523e+00
4.359559501296939743e+03 5.623413251903491172e+00
4.674090263165147007e+03 1.000000000000000000e+01
5.041736054609932580e+03 1.778279410038922848e+01
5.486800266341971110e+03 3.162277660168379256e+01
6.044134371319490128e+03 5.623413251903490817e+01
6.774406177736007521e+03 1.000000000000000000e+02
7.780242857921328323e+03 1.778279410038922776e+02
9.197195342141449146e+03 3.162277660168379612e+02
