# Temperature (K), Pressure (bars)
1.460486030585032040e+03 5.623413251903491208e-06
1.490005565110169300e+03 1.000000000000000082e-05
1.519525104323439336e+03 1.778279410038922901e-05
1.556299711811416728e+03 3.162277660168379530e-05
1.600315322692365953e+03 5.623413251903490700e-05
1.645833351572592619e+03 1.000000000000000048e-04
1.696519301008082948e+03 1.778279410038922698e-04
1.760287467937072506e+03 3.162277660168379394e-04
1.818333654413436307e+03 5.623413251903490971e-04
1.859338340966824717e+03 1.000000000000000021e-03
1.895039385927074363e+03 1.778279410038922752e-03
1.928841437309240291e+03 3.162277660168379394e-03
1.959724002007817944e+03 5.623413251903490971e-03
1.989835422515963955e+03 1.000000000000000021e-02
2.021548051063101184e+03 1.778279410038922925e-02
2.058216882343936504e+03 3.162277660168379134e-02
2.103698599143012871e+03 5.623413251903491145e-02
2.163469575367277230e+03 1.000000000000000056e-01
2.241016570063200561e+03 1.778279410038922925e-01
2.372549926598881029e+03 3.162277660168379412e-01
2.578983996805153311e+03 5.623413251903490728e-01
2.800068503324736412e+03 1.000000000000000000e+00
3.006947392850677716e+03 1.778279410038922759e+00
3.217861916692306295e+03 3.162277660168379523e+00
3.437079384607058728e+03 5.623413251903491172e+00
3.668604337788743578e+03 1.000000000000000000e+01
3.917665411052100353e+03 1.778279410038922848e+01
4.191717702884324353e+03 3.162277660168379256e+01
4.496839517756836358e+03 5.623413251903490817e+01
4.840876750243119204e+03 1.000000000000000000e+02
5.227293540967043555e+03 1.778279410038922776e+02
5.680923086497275108e+03 3.162277660168379612e+02
