# Temperature (K), Pressure (bars)
9.249168203230517520e+02 9.999999999999999547e-07
9.845862450750400967e+02 1.778279410038922901e-06
1.044255669827959991e+03 3.162277660168379191e-06
1.119468422165414722e+03 5.623413251903491208e-06
1.222434730387140007e+03 1.000000000000000082e-05
1.355162090868467203e+03 1.778279410038922901e-05
1.511339636868519847e+03 3.162277660168379530e-05
1.646510739293726601e+03 5.623413251903490700e-05
1.732291469872702692e+03 1.000000000000000048e-04
1.789428274365032848e+03 1.778279410038922698e-04
1.838434505795765745e+03 3.162277660168379394e-04
1.884674498358848041e+03 5.623413251903490971e-04
1.930035026998040621e+03 1.000000000000000021e-03
1.977597751821900147e+03 1.778279410038922752e-03
2.029541722017103439e+03 3.162277660168379394e-03
2.088709126372373248e+03 5.623413251903490971e-03
2.157689214407024338e+03 1.000000000000000021e-02
2.243236276804128920e+03 1.778279410038922925e-02
2.358826927038482609e+03 3.162277660168379134e-02
2.502150350377957693e+03 5.623413251903491145e-02
2.655849527926725386e+03 1.000000000000000056e-01
2.814769978684520538e+03 1.778279410038922925e-01
2.982595118310217003e+03 3.162277660168379412e-01
3.160651916371132756e+03 5.623413251903490728e-01
3.349111214499769630e+03 1.000000000000000000e+00
3.549041778087873354e+03 1.778279410038922759e+00
3.763634223518945419e+03 3.162277660168379523e+00
3.997707716385892127e+03 5.623413251903491172e+00
4.257146954287881272e+03 1.000000000000000000e+01
4.549110898633387478e+03 1.778279410038922848e+01
4.883095790964577645e+03 3.162277660168379256e+01
5.275295423371872857e+03 5.623413251903490817e+01
5.740231713884587407e+03 1.000000000000000000e+02
6.303402203542963434e+03 1.778279410038922776e+02
7.003220522112138497e+03 3.162277660168379612e+02
