# Temperature (K), Pressure (bars)
2.217942842529539575e+03 9.999999999999999547e-07
2.236967283095925268e+03 1.778279410038922901e-06
2.255991723662310505e+03 3.162277660168379191e-06
2.283231535072707175e+03 5.623413251903491208e-06
2.314912337724229019e+03 1.000000000000000082e-05
2.349393569657404896e+03 1.778279410038922901e-05
2.387693492925868668e+03 3.162277660168379530e-05
2.429696886691641339e+03 5.623413251903490700e-05
2.475462055454281199e+03 1.000000000000000048e-04
2.523175088859048174e+03 1.778279410038922698e-04
2.570616315618490262e+03 3.162277660168379394e-04
2.616098899358257313e+03 5.623413251903490971e-04
2.657637443389555756e+03 1.000000000000000021e-03
2.694126342547308923e+03 1.778279410038922752e-03
2.725915543253448959e+03 3.162277660168379394e-03
2.756353921380765769e+03 5.623413251903490971e-03
2.789692024903079073e+03 1.000000000000000021e-02
2.833789865973885298e+03 1.778279410038922925e-02
2.888627718408223700e+03 3.162277660168379134e-02
2.969609813918337295e+03 5.623413251903491145e-02
3.101920318220537865e+03 1.000000000000000056e-01
3.263194289666978420e+03 1.778279410038922925e-01
3.437167515423348505e+03 3.162277660168379412e-01
3.635674772796216530e+03 5.623413251903490728e-01
3.862954645011830507e+03 1.000000000000000000e+00
4.123299198672456441e+03 1.778279410038922759e+00
4.425042557543215480e+03 3.162277660168379523e+00
4.767790697371740862e+03 5.623413251903491172e+00
5.192861105796133415e+03 1.000000000000000000e+01
5.746521269208989906e+03 1.778279410038922848e+01
6.513867902734949894e+03 3.162277660168379256e+01
7.644623952678026399e+03 5.623413251903490817e+01
9.263920030750641672e+03 1.000000000000000000e+02
1.000000000000000000e+04 1.778279410038922776e+02
1.000000000000000000e+04 3.162277660168379612e+02
