# Temperature (K), Pressure (bars)
9.582536441923900838e+02 1.778279410038922901e-05
1.012341565786280512e+03 3.162277660168379530e-05
1.066429496929651805e+03 5.623413251903490700e-05
1.152502058275501895e+03 1.000000000000000048e-04
1.264549475262890383e+03 1.778279410038922698e-04
1.408134956740741927e+03 3.162277660168379394e-04
1.533172509983239252e+03 5.623413251903490971e-04
1.602992818322416042e+03 1.000000000000000021e-03
1.648927672971741686e+03 1.778279410038922752e-03
1.689143304541926000e+03 3.162277660168379394e-03
1.724300390140331274e+03 5.623413251903490971e-03
1.756743798902173012e+03 1.000000000000000021e-02
1.792322381637904300e+03 1.778279410038922925e-02
1.835856011166546295e+03 3.162277660168379134e-02
1.883737712272587032e+03 5.623413251903491145e-02
1.941505552627888392e+03 1.000000000000000056e-01
2.010233016318768250e+03 1.778279410038922925e-01
2.115554536795239073e+03 3.162277660168379412e-01
2.303631059490758162e+03 5.623413251903490728e-01
2.539525461851444106e+03 1.000000000000000000e+00
2.771536081645393097e+03 1.778279410038922759e+00
2.998441427400490284e+03 3.162277660168379523e+00
3.226127769637018901e+03 5.623413251903491172e+00
3.460144031499052289e+03 1.000000000000000000e+01
3.706587771625373080e+03 1.778279410038922848e+01
3.973280014918272627e+03 3.162277660168379256e+01
4.265851498848519441e+03 5.623413251903490817e+01
4.591305233086327462e+03 1.000000000000000000e+02
4.952686307061348089e+03 1.778279410038922776e+02
5.370710856651569884e+03 3.162277660168379612e+02
