# Temperature (K), Pressure (bars)
2.286320140522783731e+03 9.999999999999999547e-07
2.308494541003012273e+03 1.778279410038922901e-06
2.330668941486186668e+03 3.162277660168379191e-06
2.354193327059345847e+03 5.623413251903491208e-06
2.379293093694093841e+03 1.000000000000000082e-05
2.404454981060284808e+03 1.778279410038922901e-05
2.428747707626774627e+03 3.162277660168379530e-05
2.450933488116755598e+03 5.623413251903490700e-05
2.467573772665527031e+03 1.000000000000000048e-04
2.475810924486811018e+03 1.778279410038922698e-04
2.478835932598977706e+03 3.162277660168379394e-04
2.484834646750352931e+03 5.623413251903490971e-04
2.499903592561030564e+03 1.000000000000000021e-03
2.525288749456294227e+03 1.778279410038922752e-03
2.560892628014454203e+03 3.162277660168379394e-03
2.606200259991459006e+03 5.623413251903490971e-03
2.663296556358842736e+03 1.000000000000000021e-02
2.731275717419791363e+03 1.778279410038922925e-02
2.819209675752485964e+03 3.162277660168379134e-02
2.941539161299713669e+03 5.623413251903491145e-02
3.084343531076523050e+03 1.000000000000000056e-01
3.238080709644396848e+03 1.778279410038922925e-01
3.410738125844997739e+03 3.162277660168379412e-01
3.606372015047983041e+03 5.623413251903490728e-01
3.828505146646840331e+03 1.000000000000000000e+00
4.080597091583808378e+03 1.778279410038922759e+00
4.370000588946204516e+03 3.162277660168379523e+00
4.697215025607606549e+03 5.623413251903491172e+00
5.097638943850541182e+03 1.000000000000000000e+01
5.610081495213169546e+03 1.778279410038922848e+01
6.309005893430006836e+03 3.162277660168379256e+01
7.329357954874818461e+03 5.623413251903490817e+01
8.810395926008783135e+03 1.000000000000000000e+02
1.071844931283686856e+04 1.778279410038922776e+02
1.300349197936305973e+04 3.162277660168379612e+02
