# Temperature (K), Pressure (bars)
1.154223911848617945e+03 5.623413251903490700e-05
1.194237235212270207e+03 1.000000000000000048e-04
1.234250561164519240e+03 1.778279410038922698e-04
1.277337309352060402e+03 3.162277660168379394e-04
1.325727399393184214e+03 5.623413251903490971e-04
1.379506881099452812e+03 1.000000000000000021e-03
1.437695412181674328e+03 1.778279410038922752e-03
1.501741618174375844e+03 3.162277660168379394e-03
1.578847824660268770e+03 5.623413251903490971e-03
1.662756641510742156e+03 1.000000000000000021e-02
1.740272352406895379e+03 1.778279410038922925e-02
1.815726312800570440e+03 3.162277660168379134e-02
1.897840142531144920e+03 5.623413251903491145e-02
1.995670481728660206e+03 1.000000000000000056e-01
2.116519515947547006e+03 1.778279410038922925e-01
2.282760685780667700e+03 3.162277660168379412e-01
2.502318234273460348e+03 5.623413251903490728e-01
2.727954960130644395e+03 1.000000000000000000e+00
2.939288467025507089e+03 1.778279410038922759e+00
3.152209406035815846e+03 3.162277660168379523e+00
3.372048725124140219e+03 5.623413251903491172e+00
3.603072549645691652e+03 1.000000000000000000e+01
3.850366034236610176e+03 1.778279410038922848e+01
4.121367233312968892e+03 3.162277660168379256e+01
4.421770387861414747e+03 5.623413251903490817e+01
4.759038476904292111e+03 1.000000000000000000e+02
5.136651964281547407e+03 1.778279410038922776e+02
5.577547721936383823e+03 3.162277660168379612e+02
