# Temperature (K), Pressure (bars)
1.911535803296992981e+03 9.999999999999999547e-07
1.928986261028685249e+03 1.778279410038922901e-06
1.946436718760384338e+03 3.162277660168379191e-06
1.969088829620945035e+03 5.623413251903491208e-06
1.999250332269531782e+03 1.000000000000000082e-05
2.036218703706835640e+03 1.778279410038922901e-05
2.076069488157133492e+03 3.162277660168379530e-05
2.115128111917379556e+03 5.623413251903490700e-05
2.152225936358423951e+03 1.000000000000000048e-04
2.187736580338492331e+03 1.778279410038922698e-04
2.223233590824824660e+03 3.162277660168379394e-04
2.261421663073629134e+03 5.623413251903490971e-04
2.304184028791465607e+03 1.000000000000000021e-03
2.354107557410904064e+03 1.778279410038922752e-03
2.411607210911391121e+03 3.162277660168379394e-03
2.483967123510221427e+03 5.623413251903490971e-03
2.582772598406824727e+03 1.000000000000000021e-02
2.699694575155235725e+03 1.778279410038922925e-02
2.825959298177997425e+03 3.162277660168379134e-02
2.964140565015031825e+03 5.623413251903491145e-02
3.116032152881548427e+03 1.000000000000000056e-01
3.284285970261023976e+03 1.778279410038922925e-01
3.472161682131400994e+03 3.162277660168379412e-01
3.682920755738069147e+03 5.623413251903490728e-01
3.920233741436992204e+03 1.000000000000000000e+00
4.190683627525615520e+03 1.778279410038922759e+00
4.506865028067430103e+03 3.162277660168379523e+00
4.876474687642822573e+03 5.623413251903491172e+00
5.348410265634184725e+03 1.000000000000000000e+01
5.984825642108663487e+03 1.778279410038922848e+01
6.889062039465006819e+03 3.162277660168379256e+01
8.229170210999371193e+03 5.623413251903490817e+01
1.003650548970480122e+04 1.000000000000000000e+02
1.221507620437526384e+04 1.778279410038922776e+02
1.481148703101573847e+04 3.162277660168379612e+02
