# Temperature (K), Pressure (bars)
1.030127097514360457e+03 3.162277660168379394e-04
1.066835792944746800e+03 5.623413251903490971e-04
1.103544486436587931e+03 1.000000000000000021e-03
1.135291073179763998e+03 1.778279410038922752e-03
1.164465914420862873e+03 3.162277660168379394e-03
1.192842972067422579e+03 5.623413251903490971e-03
1.219780930472738874e+03 1.000000000000000021e-02
1.246759539012437472e+03 1.778279410038922925e-02
1.276373992155447013e+03 3.162277660168379134e-02
1.311585167901620707e+03 5.623413251903491145e-02
1.352435156923706472e+03 1.000000000000000056e-01
1.405880671256601545e+03 1.778279410038922925e-01
1.483624749421904653e+03 3.162277660168379412e-01
1.592207001391497215e+03 5.623413251903490728e-01
1.729765161750081461e+03 1.000000000000000000e+00
1.924614419892117667e+03 1.778279410038922759e+00
2.202877590399708879e+03 3.162277660168379523e+00
2.505200722684934590e+03 5.623413251903491172e+00
2.789900216890413049e+03 1.000000000000000000e+01
3.069290008384632984e+03 1.778279410038922848e+01
3.350956996858079947e+03 3.162277660168379256e+01
3.641400433330320084e+03 5.623413251903490817e+01
3.948510640218556091e+03 1.000000000000000000e+02
4.276755324743684469e+03 1.778279410038922776e+02
4.641282784504638585e+03 3.162277660168379612e+02
