# Temperature (K), Pressure (bars)
2.336348721714464318e+03 9.999999999999999547e-07
2.361454844940710700e+03 1.778279410038922901e-06
2.386560968331243657e+03 3.162277660168379191e-06
2.412138009227952352e+03 5.623413251903491208e-06
2.437439527130856732e+03 1.000000000000000082e-05
2.462235930922813623e+03 1.778279410038922901e-05
2.485544831799840267e+03 3.162277660168379530e-05
2.507286227341493941e+03 5.623413251903490700e-05
2.529545072206563873e+03 1.000000000000000048e-04
2.556466873415193731e+03 1.778279410038922698e-04
2.593764521209036047e+03 3.162277660168379394e-04
2.645494634455726555e+03 5.623413251903490971e-04
2.712763426171170067e+03 1.000000000000000021e-03
2.794981561321175377e+03 1.778279410038922752e-03
2.892041131822591979e+03 3.162277660168379394e-03
3.002948545173772345e+03 5.623413251903490971e-03
3.128762201084208755e+03 1.000000000000000021e-02
3.267047387262203301e+03 1.778279410038922925e-02
3.416836995496083546e+03 3.162277660168379134e-02
3.648057987812460397e+03 5.623413251903491145e-02
3.966282296110393872e+03 1.000000000000000056e-01
4.492609907358007149e+03 1.778279410038922925e-01
5.408386695507994773e+03 3.162277660168379412e-01
6.709847958685308186e+03 5.623413251903490728e-01
8.225649378156369494e+03 1.000000000000000000e+00
9.671319639993622332e+03 1.778279410038922759e+00
1.116040251992404592e+04 3.162277660168379523e+00
1.298293895274239549e+04 5.623413251903491172e+00
1.529758089768718310e+04 1.000000000000000000e+01
1.823126122286938335e+04 1.778279410038922848e+01
2.193438180319230378e+04 3.162277660168379256e+01
2.657673259950900319e+04 5.623413251903490817e+01
3.233502704893828195e+04 1.000000000000000000e+02
3.936374619570308278e+04 1.778279410038922776e+02
4.774851702350056439e+04 3.162277660168379612e+02
