# Temperature (K), Pressure (bars)
8.555907155685392809e+02 1.778279410038922901e-05
9.147099104970200187e+02 3.162277660168379530e-05
9.738291090430367376e+02 5.623413251903490700e-05
1.034707510184274497e+03 1.000000000000000048e-04
1.095407936167080834e+03 1.778279410038922698e-04
1.149234530010003482e+03 3.162277660168379394e-04
1.220544504629321409e+03 5.623413251903490971e-04
1.336576335778648172e+03 1.000000000000000021e-03
1.486945358483751761e+03 1.778279410038922752e-03
1.645764392343945701e+03 3.162277660168379394e-03
1.762769554256305810e+03 5.623413251903490971e-03
1.833627260878047309e+03 1.000000000000000021e-02
1.896846024189313994e+03 1.778279410038922925e-02
1.963909962625259368e+03 3.162277660168379134e-02
2.042568203027165509e+03 5.623413251903491145e-02
2.135074106814292463e+03 1.000000000000000056e-01
2.259125506960405801e+03 1.778279410038922925e-01
2.439021541502019318e+03 3.162277660168379412e-01
2.643952721710745664e+03 5.623413251903490728e-01
2.844984054444681988e+03 1.000000000000000000e+00
3.047981122807973861e+03 1.778279410038922759e+00
3.256748667782469511e+03 3.162277660168379523e+00
3.474583311583033264e+03 5.623413251903491172e+00
3.705728707855135326e+03 1.000000000000000000e+01
3.955455310691622344e+03 1.778279410038922848e+01
4.231462288383913801e+03 3.162277660168379256e+01
4.539582880712274346e+03 5.623413251903490817e+01
4.887811864255538239e+03 1.000000000000000000e+02
5.280105797057756718e+03 1.778279410038922776e+02
5.740863608942101564e+03 3.162277660168379612e+02
