# Temperature (K), Pressure (bars)
2.217485193022441308e+03 9.999999999999999547e-07
2.226483572902122887e+03 1.778279410038922901e-06
2.235481952781804921e+03 3.162277660168379191e-06
2.258440351597092103e+03 5.623413251903491208e-06
2.288287037221294668e+03 1.000000000000000082e-05
2.319999987262996910e+03 1.778279410038922901e-05
2.356413840455572426e+03 3.162277660168379530e-05
2.398237317279319086e+03 5.623413251903490700e-05
2.446225451213109864e+03 1.000000000000000048e-04
2.500532198405107920e+03 1.778279410038922698e-04
2.559890286697955162e+03 3.162277660168379394e-04
2.623401254741823777e+03 5.623413251903490971e-04
2.689196635796946794e+03 1.000000000000000021e-03
2.754955894072386855e+03 1.778279410038922752e-03
2.817275913755017882e+03 3.162277660168379394e-03
2.872774349109699870e+03 5.623413251903490971e-03
2.921127293603935868e+03 1.000000000000000021e-02
2.970496010503795787e+03 1.778279410038922925e-02
3.024282622780820930e+03 3.162277660168379134e-02
3.092573559004840718e+03 5.623413251903491145e-02
3.204548303929957910e+03 1.000000000000000056e-01
3.360403920687610480e+03 1.778279410038922925e-01
3.544710468632626089e+03 3.162277660168379412e-01
3.760420819676371593e+03 5.623413251903490728e-01
4.014812116035061081e+03 1.000000000000000000e+00
4.318958506694595599e+03 1.778279410038922759e+00
4.657837521303844369e+03 3.162277660168379523e+00
5.090482807210548344e+03 5.623413251903491172e+00
5.685156304276248193e+03 1.000000000000000000e+01
6.579360502730577537e+03 1.778279410038922848e+01
7.934372757096325586e+03 3.162277660168379256e+01
9.712605859710396544e+03 5.623413251903490817e+01
1.000000000000000000e+04 1.000000000000000000e+02
1.000000000000000000e+04 1.778279410038922776e+02
1.000000000000000000e+04 3.162277660168379612e+02
