# Temperature (K), Pressure (bars)
1.079381993393770017e+03 3.162277660168379394e-04
1.135385640714247074e+03 5.623413251903490971e-04
1.191389290303773123e+03 1.000000000000000021e-03
1.247122269437354817e+03 1.778279410038922752e-03
1.302912030946793038e+03 3.162277660168379394e-03
1.359895481575541226e+03 5.623413251903490971e-03
1.420317238652993183e+03 1.000000000000000021e-02
1.486554257575921611e+03 1.778279410038922925e-02
1.564498867479722549e+03 3.162277660168379134e-02
1.660317373998224184e+03 5.623413251903491145e-02
1.782376081712140831e+03 1.000000000000000056e-01
1.945617903623849770e+03 1.778279410038922925e-01
2.157920933943686578e+03 3.162277660168379412e-01
2.399055611293470974e+03 5.623413251903490728e-01
2.633549143070506034e+03 1.000000000000000000e+00
2.854121954752054990e+03 1.778279410038922759e+00
3.072488386832024389e+03 3.162277660168379523e+00
3.294889219950955976e+03 5.623413251903491172e+00
3.526442942873861739e+03 1.000000000000000000e+01
3.772497966386136341e+03 1.778279410038922848e+01
4.040644801071272923e+03 3.162277660168379256e+01
4.336260774020767712e+03 5.623413251903490817e+01
4.666491152460093872e+03 1.000000000000000000e+02
5.034917968400233804e+03 1.778279410038922776e+02
5.462460786575949896e+03 3.162277660168379612e+02
