# Temperature (K), Pressure (bars)
8.121951666184154419e+02 5.623413251903490971e-04
8.552083592086924000e+02 1.000000000000000021e-03
8.982215529952295583e+02 1.778279410038922752e-03
9.402071156143123289e+02 3.162277660168379394e-03
9.824051452827187632e+02 5.623413251903490971e-03
1.025802706217800505e+03 1.000000000000000021e-02
1.070629305116005071e+03 1.778279410038922925e-02
1.119746802961832827e+03 3.162277660168379134e-02
1.176890461355101934e+03 5.623413251903491145e-02
1.249458833521513952e+03 1.000000000000000056e-01
1.341507627306286395e+03 1.778279410038922925e-01
1.477038304283212028e+03 3.162277660168379412e-01
1.687878551903530706e+03 5.623413251903490728e-01
1.949628393672914171e+03 1.000000000000000000e+00
2.225797553225248976e+03 1.778279410038922759e+00
2.502482027473532526e+03 3.162277660168379523e+00
2.771192755107469111e+03 5.623413251903491172e+00
3.033164597916626917e+03 1.000000000000000000e+01
3.294531126646491884e+03 1.778279410038922848e+01
3.564882763082493966e+03 3.162277660168379256e+01
3.850493568211974434e+03 5.623413251903490817e+01
4.158592818279959829e+03 1.000000000000000000e+02
4.492918046290600614e+03 1.778279410038922776e+02
4.869479641493323470e+03 3.162277660168379612e+02
