# Temperature (K), Pressure (bars)
9.449235853910081460e+02 3.162277660168379394e-04
9.905342317492006714e+02 5.623413251903490971e-04
1.036144878036838236e+03 1.000000000000000021e-03
1.074497787151086868e+03 1.778279410038922752e-03
1.105978482313689710e+03 3.162277660168379394e-03
1.132406406327594368e+03 5.623413251903490971e-03
1.156653771126802212e+03 1.000000000000000021e-02
1.183095283576872362e+03 1.778279410038922925e-02
1.214433684220078703e+03 3.162277660168379134e-02
1.252312998255198181e+03 5.623413251903491145e-02
1.299416049706025206e+03 1.000000000000000056e-01
1.360563936731641434e+03 1.778279410038922925e-01
1.432023992154231564e+03 3.162277660168379412e-01
1.514901690322449667e+03 5.623413251903490728e-01
1.623752163074968394e+03 1.000000000000000000e+00
1.782511355899666114e+03 1.778279410038922759e+00
2.018067758807926339e+03 3.162277660168379523e+00
2.307641538781500458e+03 5.623413251903491172e+00
2.604773706100316303e+03 1.000000000000000000e+01
2.896747823354203774e+03 1.778279410038922848e+01
3.187914465394213494e+03 3.162277660168379256e+01
3.483354833512333698e+03 5.623413251903490817e+01
3.790747884446252101e+03 1.000000000000000000e+02
4.112944030991404361e+03 1.778279410038922776e+02
4.468305193418784256e+03 3.162277660168379612e+02
