# Temperature (K), Pressure (bars)
1.018712131550561594e+03 9.999999999999999547e-07
1.077653940079671656e+03 1.778279410038922901e-06
1.136595748608804570e+03 3.162277660168379191e-06
1.191132133128110581e+03 5.623413251903491208e-06
1.242742830460832693e+03 1.000000000000000082e-05
1.295344776418718084e+03 1.778279410038922901e-05
1.356033329437474094e+03 3.162277660168379530e-05
1.431596038882987614e+03 5.623413251903490700e-05
1.521488988610467686e+03 1.000000000000000048e-04
1.620348786461398049e+03 1.778279410038922698e-04
1.721423979303654505e+03 3.162277660168379394e-04
1.821056728222916036e+03 5.623413251903490971e-04
1.920193095387928452e+03 1.000000000000000021e-03
2.031233878567912598e+03 1.778279410038922752e-03
2.165750793578009052e+03 3.162277660168379394e-03
2.313671506281561506e+03 5.623413251903490971e-03
2.464590797655813276e+03 1.000000000000000021e-02
2.619346606092567527e+03 1.778279410038922925e-02
2.779880559183031892e+03 3.162277660168379134e-02
2.948209754381635321e+03 5.623413251903491145e-02
3.125873431554190120e+03 1.000000000000000056e-01
3.313713468761516197e+03 1.778279410038922925e-01
3.513374996120877768e+03 3.162277660168379412e-01
3.729234428701413890e+03 5.623413251903490728e-01
3.968693132453886392e+03 1.000000000000000000e+00
4.242287944470246657e+03 1.778279410038922759e+00
4.555922570073426868e+03 3.162277660168379523e+00
4.943523719096835521e+03 5.623413251903491172e+00
5.447863316287188354e+03 1.000000000000000000e+01
6.142690890278978259e+03 1.778279410038922848e+01
7.149462860020790686e+03 3.162277660168379256e+01
8.635585077848609217e+03 5.623413251903490817e+01
1.054105757373140295e+04 1.000000000000000000e+02
1.282914871813847458e+04 1.778279410038922776e+02
1.555608550273458059e+04 3.162277660168379612e+02
