# Temperature (K), Pressure (bars)
7.696534933342088607e+02 3.162277660168379394e-04
8.146400853246155975e+02 5.623413251903490971e-04
8.596266784282837534e+02 1.000000000000000021e-03
9.038685114295035419e+02 1.778279410038922752e-03
9.477883545298127501e+02 3.162277660168379394e-03
9.925505309315038858e+02 5.623413251903490971e-03
1.039587820920873583e+03 1.000000000000000021e-02
1.091913073716172903e+03 1.778279410038922925e-02
1.153515292714433372e+03 3.162277660168379134e-02
1.230853840197705722e+03 5.623413251903491145e-02
1.329730885069914166e+03 1.000000000000000056e-01
1.467265610859792559e+03 1.778279410038922925e-01
1.664562263377940099e+03 3.162277660168379412e-01
1.913319475712129588e+03 5.623413251903490728e-01
2.186778525667375561e+03 1.000000000000000000e+00
2.458241785686715048e+03 1.778279410038922759e+00
2.716027142143583660e+03 3.162277660168379523e+00
2.964574911543529652e+03 5.623413251903491172e+00
3.210532874818298751e+03 1.000000000000000000e+01
3.461645424028643902e+03 1.778279410038922848e+01
3.727258850514484038e+03 3.162277660168379256e+01
4.012650383137568042e+03 5.623413251903490817e+01
4.324510012457555604e+03 1.000000000000000000e+02
4.666108036972033915e+03 1.778279410038922776e+02
5.054693837613976939e+03 3.162277660168379612e+02
