# Temperature (K), Pressure (bars)
1.484115964846273982e+03 9.999999999999999547e-07
1.541138951697115772e+03 1.778279410038922901e-06
1.598161938548984153e+03 3.162277660168379191e-06
1.653807408929695384e+03 5.623413251903491208e-06
1.707980432037160426e+03 1.000000000000000082e-05
1.758673981944530169e+03 1.778279410038922901e-05
1.809182426318088346e+03 3.162277660168379530e-05
1.861560327673557367e+03 5.623413251903490700e-05
1.914853013766603453e+03 1.000000000000000048e-04
1.970043556710503253e+03 1.778279410038922698e-04
2.028978251250672201e+03 3.162277660168379394e-04
2.093340475718395282e+03 5.623413251903490971e-04
2.165549804289676104e+03 1.000000000000000021e-03
2.252111714813222079e+03 1.778279410038922752e-03
2.356337574476903228e+03 3.162277660168379394e-03
2.472440794839506452e+03 5.623413251903490971e-03
2.596149248409771644e+03 1.000000000000000021e-02
2.728513734928730173e+03 1.778279410038922925e-02
2.871621088165383298e+03 3.162277660168379134e-02
3.028302491629875931e+03 5.623413251903491145e-02
3.201568552269842257e+03 1.000000000000000056e-01
3.393715760916726140e+03 1.778279410038922925e-01
3.606647279043066192e+03 3.162277660168379412e-01
3.844575768596460875e+03 5.623413251903490728e-01
4.118069006972033094e+03 1.000000000000000000e+00
4.419918549779688874e+03 1.778279410038922759e+00
4.798788608385098087e+03 3.162277660168379523e+00
5.306220363977286070e+03 5.623413251903491172e+00
6.041468547282266627e+03 1.000000000000000000e+01
7.166113770623397613e+03 1.778279410038922848e+01
8.771446092632681029e+03 3.162277660168379256e+01
1.070992867028615547e+04 5.623413251903490817e+01
1.303001413500346462e+04 1.000000000000000000e+02
1.586085144709226915e+04 1.778279410038922776e+02
1.923766274059245552e+04 3.162277660168379612e+02
