# Temperature (K), Pressure (bars)
7.179227064190813508e+02 9.999999999999999547e-07
7.407709371123839901e+02 1.778279410038922901e-06
7.636191678169813031e+02 3.162277660168379191e-06
7.895532779884405272e+02 5.623413251903491208e-06
8.194359232859553686e+02 1.000000000000000082e-05
8.525119597041439192e+02 1.778279410038922901e-05
8.888304679421587480e+02 3.162277660168379530e-05
9.282581425239420696e+02 5.623413251903490700e-05
9.704274533666362004e+02 1.000000000000000048e-04
1.015510670340303705e+03 1.778279410038922698e-04
1.063398648346486880e+03 3.162277660168379394e-04
1.114994017973947848e+03 5.623413251903490971e-04
1.171713726742118070e+03 1.000000000000000021e-03
1.235910322066855315e+03 1.778279410038922752e-03
1.309402617323844197e+03 3.162277660168379394e-03
1.397650092620752048e+03 5.623413251903490971e-03
1.504578833204101556e+03 1.000000000000000021e-02
1.663374086212696966e+03 1.778279410038922925e-02
1.898234190251847394e+03 3.162277660168379134e-02
2.148308099019017391e+03 5.623413251903491145e-02
2.369323923447865127e+03 1.000000000000000056e-01
2.570697525117896930e+03 1.778279410038922925e-01
2.759895393107618474e+03 3.162277660168379412e-01
2.944003060968258978e+03 5.623413251903490728e-01
3.128765865818083512e+03 1.000000000000000000e+00
3.319321933735458515e+03 1.778279410038922759e+00
3.520475872979224732e+03 3.162277660168379523e+00
3.736784412289434385e+03 5.623413251903491172e+00
3.972909016918403722e+03 1.000000000000000000e+01
4.234111628236062643e+03 1.778279410038922848e+01
4.526767658852608292e+03 3.162277660168379256e+01
4.859421206683747187e+03 5.623413251903490817e+01
5.247892201821600793e+03 1.000000000000000000e+02
5.702305485916569523e+03 1.778279410038922776e+02
6.243313321515528514e+03 3.162277660168379612e+02
