# Temperature (K), Pressure (bars)
1.776518003256525844e+03 9.999999999999999547e-07
1.799957864127226458e+03 1.778279410038922901e-06
1.823397724997926844e+03 3.162277660168379191e-06
1.849320079888899954e+03 5.623413251903491208e-06
1.878484059991745426e+03 1.000000000000000082e-05
1.912675407496967182e+03 1.778279410038922901e-05
1.950926263768658373e+03 3.162277660168379530e-05
1.992235767507415176e+03 5.623413251903490700e-05
2.037694792524780496e+03 1.000000000000000048e-04
2.087443923610318961e+03 1.778279410038922698e-04
2.141759198011464832e+03 3.162277660168379394e-04
2.201763808208862429e+03 5.623413251903490971e-04
2.268769570204645788e+03 1.000000000000000021e-03
2.344912163713824157e+03 1.778279410038922752e-03
2.433357593710169112e+03 3.162277660168379394e-03
2.534725802295851281e+03 5.623413251903490971e-03
2.647081491182173068e+03 1.000000000000000021e-02
2.770309999910425176e+03 1.778279410038922925e-02
2.906198102533410292e+03 3.162277660168379134e-02
3.057167754852114740e+03 5.623413251903491145e-02
3.226548690358403746e+03 1.000000000000000056e-01
3.420772042799259452e+03 1.778279410038922925e-01
3.618955052725561018e+03 3.162277660168379412e-01
3.842274645888803207e+03 5.623413251903490728e-01
4.099222740154957137e+03 1.000000000000000000e+00
4.394398813074140890e+03 1.778279410038922759e+00
4.761739989690750917e+03 3.162277660168379523e+00
5.249062561820403062e+03 5.623413251903491172e+00
5.957455645741001717e+03 1.000000000000000000e+01
7.061617800780159087e+03 1.778279410038922848e+01
8.636756224707787624e+03 3.162277660168379256e+01
1.000000000000000000e+04 5.623413251903490817e+01
1.000000000000000000e+04 1.000000000000000000e+02
1.000000000000000000e+04 1.778279410038922776e+02
1.000000000000000000e+04 3.162277660168379612e+02
