# Temperature (K), Pressure (bars)
1.009935211379123643e+03 3.162277660168379394e-03
1.058819555632640458e+03 5.623413251903490971e-03
1.107703901461472469e+03 1.000000000000000021e-02
1.154495718731586294e+03 1.778279410038922925e-02
1.201078528549696557e+03 3.162277660168379134e-02
1.249458111373386828e+03 5.623413251903491145e-02
1.300744461222091559e+03 1.000000000000000056e-01
1.359368945274146881e+03 1.778279410038922925e-01
1.434963787951215409e+03 3.162277660168379412e-01
1.532729762463465249e+03 5.623413251903490728e-01
1.660311659725851314e+03 1.000000000000000000e+00
1.815018821710967131e+03 1.778279410038922759e+00
2.012675980843234811e+03 3.162277660168379523e+00
2.281270661597126491e+03 5.623413251903491172e+00
2.581150058589320906e+03 1.000000000000000000e+01
2.874707183670895120e+03 1.778279410038922848e+01
3.169019162257887274e+03 3.162277660168379256e+01
3.467244038946472756e+03 5.623413251903490817e+01
3.777127339201750601e+03 1.000000000000000000e+02
4.104044358302005094e+03 1.778279410038922776e+02
4.462171679583602781e+03 3.162277660168379612e+02
