# Temperature (K), Pressure (bars)
9.566782388002410471e+02 5.623413251903490971e-04
1.007527350183346471e+03 1.000000000000000021e-03
1.058376463039438931e+03 1.778279410038922752e-03
1.108666926048093046e+03 3.162277660168379394e-03
1.158835030149813974e+03 5.623413251903490971e-03
1.210114566487049387e+03 1.000000000000000021e-02
1.263153541358151188e+03 1.778279410038922925e-02
1.319927352230382667e+03 3.162277660168379134e-02
1.384929846717744567e+03 5.623413251903491145e-02
1.464910585075077051e+03 1.000000000000000056e-01
1.577865126884655865e+03 1.778279410038922925e-01
1.737259400630268829e+03 3.162277660168379412e-01
1.953253325802781319e+03 5.623413251903490728e-01
2.221238505198771236e+03 1.000000000000000000e+00
2.493928872598838552e+03 1.778279410038922759e+00
2.747464719194977533e+03 3.162277660168379523e+00
2.993337595929661347e+03 5.623413251903491172e+00
3.238329215704796297e+03 1.000000000000000000e+01
3.489389341327674174e+03 1.778279410038922848e+01
3.755060482114982278e+03 3.162277660168379256e+01
4.041206736370953877e+03 5.623413251903490817e+01
4.354591213030696053e+03 1.000000000000000000e+02
4.698346533095525956e+03 1.778279410038922776e+02
5.090504496710102103e+03 3.162277660168379612e+02
