# Temperature (K), Pressure (bars)
9.451059863666509955e+02 3.162277660168379530e-05
9.923369106359264151e+02 5.623413251903490700e-05
1.039567834791341284e+03 1.000000000000000048e-04
1.083083831210492690e+03 1.778279410038922698e-04
1.126703924428317805e+03 3.162277660168379394e-04
1.173634902867332585e+03 5.623413251903490971e-04
1.226938199834287616e+03 1.000000000000000021e-03
1.290485313261572855e+03 1.778279410038922752e-03
1.373558613085545403e+03 3.162277660168379394e-03
1.473688063201026807e+03 5.623413251903490971e-03
1.576776285824442084e+03 1.000000000000000021e-02
1.688489329552857726e+03 1.778279410038922925e-02
1.811228870171023118e+03 3.162277660168379134e-02
1.943390951663894157e+03 5.623413251903491145e-02
2.115119964346844426e+03 1.000000000000000056e-01
2.331428759003385949e+03 1.778279410038922925e-01
2.546914115839956139e+03 3.162277660168379412e-01
2.746331400408148056e+03 5.623413251903490728e-01
2.943279798776383359e+03 1.000000000000000000e+00
3.142462778187675667e+03 1.778279410038922759e+00
3.347656265134987279e+03 3.162277660168379523e+00
3.563416921013931642e+03 5.623413251903491172e+00
3.794762292724362851e+03 1.000000000000000000e+01
4.047058875623143194e+03 1.778279410038922848e+01
4.328488043967296107e+03 3.162277660168379256e+01
4.644644272067361271e+03 5.623413251903490817e+01
5.004131960062571125e+03 1.000000000000000000e+02
5.411482390173016029e+03 1.778279410038922776e+02
5.893941152688050352e+03 3.162277660168379612e+02
