# Temperature (K), Pressure (bars)
8.618840327765466327e+02 3.162277660168379394e-04
9.128182077892432744e+02 5.623413251903490971e-04
9.637523839186397936e+02 1.000000000000000021e-03
1.014186838040883686e+03 1.778279410038922752e-03
1.064177998686116098e+03 3.162277660168379394e-03
1.114965470109464377e+03 5.623413251903490971e-03
1.168316349655821796e+03 1.000000000000000021e-02
1.228021428172717606e+03 1.778279410038922925e-02
1.298036075022687783e+03 3.162277660168379134e-02
1.391241696456598220e+03 5.623413251903491145e-02
1.528489569222970204e+03 1.000000000000000056e-01
1.728993224470910263e+03 1.778279410038922925e-01
1.985828653970108689e+03 3.162277660168379412e-01
2.252667274588307464e+03 5.623413251903490728e-01
2.502764161315576985e+03 1.000000000000000000e+00
2.739872474049160246e+03 1.778279410038922759e+00
2.968646123982995505e+03 3.162277660168379523e+00
3.196043376509786867e+03 5.623413251903491172e+00
3.429087577664350192e+03 1.000000000000000000e+01
3.674363995630237696e+03 1.778279410038922848e+01
3.940284477364908525e+03 3.162277660168379256e+01
4.231438047990705854e+03 5.623413251903490817e+01
4.554682871119347510e+03 1.000000000000000000e+02
4.913464549835928665e+03 1.778279410038922776e+02
5.327210303934186413e+03 3.162277660168379612e+02
