# Temperature (K), Pressure (bars)
2.079631250082255065e+03 9.999999999999999547e-07
2.104621965157095019e+03 1.778279410038922901e-06
2.129612680231934519e+03 3.162277660168379191e-06
2.164119534084592033e+03 5.623413251903491208e-06
2.207404513624398987e+03 1.000000000000000082e-05
2.253937612896987957e+03 1.778279410038922901e-05
2.302970624584243069e+03 3.162277660168379530e-05
2.354241084929737553e+03 5.623413251903490700e-05
2.405347994274051871e+03 1.000000000000000048e-04
2.455497448772147891e+03 1.778279410038922698e-04
2.504092470056936236e+03 3.162277660168379394e-04
2.551004155863989581e+03 5.623413251903490971e-04
2.597796360178732812e+03 1.000000000000000021e-03
2.647413078439997662e+03 1.778279410038922752e-03
2.700138645129619817e+03 3.162277660168379394e-03
2.754785611203998542e+03 5.623413251903490971e-03
2.798837998387104108e+03 1.000000000000000021e-02
2.843551819163675646e+03 1.778279410038922925e-02
2.934430610473960314e+03 3.162277660168379134e-02
3.071546641957116208e+03 5.623413251903491145e-02
3.233944599356292201e+03 1.000000000000000056e-01
3.426961708232724504e+03 1.778279410038922925e-01
3.625734696155325310e+03 3.162277660168379412e-01
3.852740679219462891e+03 5.623413251903490728e-01
4.114819381399515805e+03 1.000000000000000000e+00
4.414878198005363629e+03 1.778279410038922759e+00
4.790630636396437694e+03 3.162277660168379523e+00
5.294281339044367087e+03 5.623413251903491172e+00
6.036688193509861776e+03 1.000000000000000000e+01
7.196928821596886337e+03 1.778279410038922848e+01
8.818545643918172573e+03 3.162277660168379256e+01
1.000000000000000000e+04 5.623413251903490817e+01
1.000000000000000000e+04 1.000000000000000000e+02
1.000000000000000000e+04 1.778279410038922776e+02
1.000000000000000000e+04 3.162277660168379612e+02
