# Temperature (K), Pressure (bars)
2.225697052419031934e+03 9.999999999999999547e-07
2.244999263206634623e+03 1.778279410038922901e-06
2.264301473994236858e+03 3.162277660168379191e-06
2.283730432107875458e+03 5.623413251903491208e-06
2.302814446972226506e+03 1.000000000000000082e-05
2.317636907135478850e+03 1.778279410038922901e-05
2.324469441575346082e+03 3.162277660168379530e-05
2.326699913161575296e+03 5.623413251903490700e-05
2.333630115777767060e+03 1.000000000000000048e-04
2.351724717690673515e+03 1.778279410038922698e-04
2.381449525224908029e+03 3.162277660168379394e-04
2.421254301839674554e+03 5.623413251903490971e-04
2.470135872566374474e+03 1.000000000000000021e-03
2.528479641657153024e+03 1.778279410038922752e-03
2.597802201400385002e+03 3.162277660168379394e-03
2.680389328952692267e+03 5.623413251903490971e-03
2.779243920076330141e+03 1.000000000000000021e-02
2.894642755936128651e+03 1.778279410038922925e-02
3.024891306684422943e+03 3.162277660168379134e-02
3.171929651781523262e+03 5.623413251903491145e-02
3.342556925001519176e+03 1.000000000000000056e-01
3.527672851819204880e+03 1.778279410038922925e-01
3.743453313936640825e+03 3.162277660168379412e-01
3.997958530580808656e+03 5.623413251903490728e-01
4.290065371651680834e+03 1.000000000000000000e+00
4.663948898037630897e+03 1.778279410038922759e+00
5.186084902683469409e+03 3.162277660168379523e+00
5.996221509551530289e+03 5.623413251903491172e+00
7.266495006989813191e+03 1.000000000000000000e+01
8.939075668670506275e+03 1.778279410038922848e+01
1.000000000000000000e+04 3.162277660168379256e+01
1.000000000000000000e+04 5.623413251903490817e+01
1.000000000000000000e+04 1.000000000000000000e+02
1.000000000000000000e+04 1.778279410038922776e+02
1.000000000000000000e+04 3.162277660168379612e+02
