# Temperature (K), Pressure (bars)
2.237194833566248235e+03 9.999999999999999547e-07
2.278438510676088754e+03 1.778279410038922901e-06
2.319682187827000689e+03 3.162277660168379191e-06
2.360970999970202683e+03 5.623413251903491208e-06
2.401142728750439346e+03 1.000000000000000082e-05
2.438895841796898821e+03 1.778279410038922901e-05
2.473061803812934158e+03 3.162277660168379530e-05
2.503723551323744687e+03 5.623413251903490700e-05
2.533193976099558313e+03 1.000000000000000048e-04
2.564860657490538870e+03 1.778279410038922698e-04
2.602090707392245349e+03 3.162277660168379394e-04
2.647825848739184948e+03 5.623413251903490971e-04
2.704449388173730767e+03 1.000000000000000021e-03
2.773493153788554537e+03 1.778279410038922752e-03
2.855875688029124831e+03 3.162277660168379394e-03
2.951239903883667466e+03 5.623413251903490971e-03
3.059596261242794299e+03 1.000000000000000021e-02
3.179860472577078326e+03 1.778279410038922925e-02
3.320523443466545359e+03 3.162277660168379134e-02
3.511145651946461385e+03 5.623413251903491145e-02
3.748442235409550904e+03 1.000000000000000056e-01
4.065949538935723467e+03 1.778279410038922925e-01
4.559676777207356281e+03 3.162277660168379412e-01
5.390766481681859659e+03 5.623413251903490728e-01
6.628442771542873743e+03 1.000000000000000000e+00
8.173704543568579538e+03 1.778279410038922759e+00
9.723566572424882906e+03 3.162277660168379523e+00
1.136087205972111587e+04 5.623413251903491172e+00
1.338548714208089041e+04 1.000000000000000000e+01
1.595051424664205842e+04 1.778279410038922848e+01
1.918929289734272606e+04 3.162277660168379256e+01
2.324802869855015524e+04 5.623413251903490817e+01
2.828423529967180002e+04 1.000000000000000000e+02
3.442913029369314609e+04 1.778279410038922776e+02
4.175917032268832554e+04 3.162277660168379612e+02
