# Temperature (K), Pressure (bars)
1.898680458381528524e+03 9.999999999999999547e-07
1.923145398069744715e+03 1.778279410038922901e-06
1.947610337757960906e+03 3.162277660168379191e-06
1.976374388380704431e+03 5.623413251903491208e-06
2.011678897016949577e+03 1.000000000000000082e-05
2.050331826318577896e+03 1.778279410038922901e-05
2.088171405325712840e+03 3.162277660168379530e-05
2.124061940933706865e+03 5.623413251903490700e-05
2.159050732548349515e+03 1.000000000000000048e-04
2.194940411667384069e+03 1.778279410038922698e-04
2.233829329406114084e+03 3.162277660168379394e-04
2.277876702128286524e+03 5.623413251903490971e-04
2.329308922747597080e+03 1.000000000000000021e-03
2.389431037226303488e+03 1.778279410038922752e-03
2.461293811851915052e+03 3.162277660168379394e-03
2.550397465732022283e+03 5.623413251903490971e-03
2.656027720994100946e+03 1.000000000000000021e-02
2.773568070451561653e+03 1.778279410038922925e-02
2.902632328413855248e+03 3.162277660168379134e-02
3.045860594073251832e+03 5.623413251903491145e-02
3.206936656182231218e+03 1.000000000000000056e-01
3.389937970917239909e+03 1.778279410038922925e-01
3.598403169810033432e+03 3.162277660168379412e-01
3.836048882968912039e+03 5.623413251903490728e-01
4.112268253968893077e+03 1.000000000000000000e+00
4.412524415310494078e+03 1.778279410038922759e+00
4.788616541629701715e+03 3.162277660168379523e+00
5.291549599681440668e+03 5.623413251903491172e+00
6.024776223831862808e+03 1.000000000000000000e+01
7.161473989812201580e+03 1.778279410038922848e+01
8.770064649711650418e+03 3.162277660168379256e+01
1.070946776316546857e+04 5.623413251903490817e+01
1.303086189269546048e+04 1.000000000000000000e+02
1.586518233142991994e+04 1.778279410038922776e+02
1.924518487322210785e+04 3.162277660168379612e+02
