# Temperature (K), Pressure (bars)
1.394374821672244025e+03 1.778279410038922901e-05
1.417191827544884973e+03 3.162277660168379530e-05
1.440008836791985686e+03 5.623413251903490700e-05
1.467785749373023918e+03 1.000000000000000048e-04
1.504123901363268487e+03 1.778279410038922698e-04
1.555187910153769280e+03 3.162277660168379394e-04
1.625565280846326232e+03 5.623413251903490971e-04
1.695923790935019724e+03 1.000000000000000021e-03
1.754750644901741680e+03 1.778279410038922752e-03
1.812931748954925752e+03 3.162277660168379394e-03
1.873654211806414878e+03 5.623413251903490971e-03
1.936385635177938866e+03 1.000000000000000021e-02
2.002703342517591409e+03 1.778279410038922925e-02
2.077348957205469105e+03 3.162277660168379134e-02
2.161709855266448358e+03 5.623413251903491145e-02
2.271271599129449442e+03 1.000000000000000056e-01
2.429057105642103579e+03 1.778279410038922925e-01
2.613098899727096068e+03 3.162277660168379412e-01
2.797499151985970002e+03 5.623413251903490728e-01
2.984765511018485540e+03 1.000000000000000000e+00
3.179175800200745016e+03 1.778279410038922759e+00
3.383912515111408538e+03 3.162277660168379523e+00
3.601684791297143875e+03 5.623413251903491172e+00
3.835997683314551068e+03 1.000000000000000000e+01
4.091742716452526111e+03 1.778279410038922848e+01
4.376539029549253428e+03 3.162277660168379256e+01
4.697149973397543363e+03 5.623413251903490817e+01
5.062753288039495601e+03 1.000000000000000000e+02
5.477508779378234976e+03 1.778279410038922776e+02
5.971035113185235787e+03 3.162277660168379612e+02
