# Temperature (K), Pressure (bars)
8.355116001873451523e+02 3.162277660168379394e-04
8.822201479876508756e+02 5.623413251903490971e-04
9.289286969420791138e+02 1.000000000000000021e-03
9.742940003734984202e+02 1.778279410038922752e-03
1.020192270498982793e+03 3.162277660168379394e-03
1.067308839333641572e+03 5.623413251903490971e-03
1.115845827588194197e+03 1.000000000000000021e-02
1.168277373345200431e+03 1.778279410038922925e-02
1.227674649633770969e+03 3.162277660168379134e-02
1.301278007849393134e+03 5.623413251903491145e-02
1.392461764659924711e+03 1.000000000000000056e-01
1.525257240687418971e+03 1.778279410038922925e-01
1.733393900412064113e+03 3.162277660168379412e-01
1.991737488816071391e+03 5.623413251903490728e-01
2.259902319286913553e+03 1.000000000000000000e+00
2.522631181944407217e+03 1.778279410038922759e+00
2.773798048507865587e+03 3.162277660168379523e+00
3.017315405644837483e+03 5.623413251903491172e+00
3.260101312878729459e+03 1.000000000000000000e+01
3.509644417168279688e+03 1.778279410038922848e+01
3.774888274499119234e+03 3.162277660168379256e+01
4.061124474847235888e+03 5.623413251903490817e+01
4.375076788360534920e+03 1.000000000000000000e+02
4.719858838338686837e+03 1.778279410038922776e+02
5.113487343977514684e+03 3.162277660168379612e+02
