# Temperature (K), Pressure (bars)
1.689715598965545041e+03 3.162277660168379530e-05
1.704349104537546737e+03 5.623413251903490700e-05
1.718982612374926020e+03 1.000000000000000048e-04
1.737853451380939532e+03 1.778279410038922698e-04
1.761467034427550288e+03 3.162277660168379394e-04
1.790190507402464391e+03 5.623413251903490971e-04
1.824971844722188052e+03 1.000000000000000021e-03
1.863918021181452104e+03 1.778279410038922752e-03
1.906016705687780131e+03 3.162277660168379394e-03
1.951212887283738155e+03 5.623413251903490971e-03
1.999626943258997699e+03 1.000000000000000021e-02
2.051662207646768820e+03 1.778279410038922925e-02
2.108399304185008077e+03 3.162277660168379134e-02
2.169803678173838307e+03 5.623413251903491145e-02
2.242605235626042941e+03 1.000000000000000056e-01
2.329453221490527085e+03 1.778279410038922925e-01
2.449475300147642884e+03 3.162277660168379412e-01
2.628067537183900640e+03 5.623413251903490728e-01
2.830884750689440807e+03 1.000000000000000000e+00
3.030311906968050607e+03 1.778279410038922759e+00
3.236573742309563841e+03 3.162277660168379523e+00
3.453970997591881314e+03 5.623413251903491172e+00
3.685742974061862242e+03 1.000000000000000000e+01
3.935902270946889985e+03 1.778279410038922848e+01
4.211128349753762450e+03 3.162277660168379256e+01
4.517886226360423279e+03 5.623413251903490817e+01
4.864118623469416889e+03 1.000000000000000000e+02
5.253909115746844691e+03 1.778279410038922776e+02
5.711507875587950366e+03 3.162277660168379612e+02
