# Temperature (K), Pressure (bars)
9.766740451611544813e+02 3.162277660168379394e-04
1.036051109855421146e+03 5.623413251903490971e-04
1.095428175831650606e+03 1.000000000000000021e-03
1.152285723293264482e+03 1.778279410038922752e-03
1.208485017100469349e+03 3.162277660168379394e-03
1.265905322453897952e+03 5.623413251903490971e-03
1.327499249518787565e+03 1.000000000000000021e-02
1.396561509966770927e+03 1.778279410038922925e-02
1.481235001480402389e+03 3.162277660168379134e-02
1.592546301825190312e+03 5.623413251903491145e-02
1.749558435988320298e+03 1.000000000000000056e-01
1.968342296175250112e+03 1.778279410038922925e-01
2.218174024509541596e+03 3.162277660168379412e-01
2.458587650491750082e+03 5.623413251903490728e-01
2.683825836703082132e+03 1.000000000000000000e+00
2.900898468687593777e+03 1.778279410038922759e+00
3.116449415293539005e+03 3.162277660168379523e+00
3.336376780337132914e+03 5.623413251903491172e+00
3.566294079848485580e+03 1.000000000000000000e+01
3.811882028478615666e+03 1.778279410038922848e+01
4.081090916340060176e+03 3.162277660168379256e+01
4.378856458486116935e+03 5.623413251903490817e+01
4.712326638504550829e+03 1.000000000000000000e+02
5.085194705918687760e+03 1.778279410038922776e+02
5.519022645057665613e+03 3.162277660168379612e+02
