# Temperature (K), Pressure (bars)
9.192238972953559824e+02 3.162277660168379394e-04
9.710451485782651844e+02 5.623413251903490971e-04
1.022866401774154042e+03 1.000000000000000021e-03
1.073185254303544752e+03 1.778279410038922752e-03
1.123364352278200386e+03 3.162277660168379394e-03
1.174410291525253115e+03 5.623413251903490971e-03
1.227080520222737732e+03 1.000000000000000021e-02
1.282312839329792723e+03 1.778279410038922925e-02
1.343901715979179244e+03 3.162277660168379134e-02
1.416092180913078209e+03 5.623413251903491145e-02
1.509018137758844887e+03 1.000000000000000056e-01
1.637286023888173304e+03 1.778279410038922925e-01
1.818330084947343494e+03 3.162277660168379412e-01
2.058068605914232194e+03 5.623413251903490728e-01
2.321722799846842918e+03 1.000000000000000000e+00
2.576790257902961002e+03 1.778279410038922759e+00
2.821294056093418476e+03 3.162277660168379523e+00
3.060494423077907868e+03 5.623413251903491172e+00
3.301049360261843958e+03 1.000000000000000000e+01
3.549715301479868231e+03 1.778279410038922848e+01
3.814861454030575715e+03 3.162277660168379256e+01
4.102019016238570657e+03 5.623413251903490817e+01
4.417927373732638443e+03 1.000000000000000000e+02
4.765748627914097597e+03 1.778279410038922776e+02
5.163974061926935065e+03 3.162277660168379612e+02
