# Temperature (K), Pressure (bars)
1.420728550906180544e+03 1.778279410038922901e-05
1.442423760159470476e+03 3.162277660168379530e-05
1.464118995030406040e+03 5.623413251903490700e-05
1.500425250329620667e+03 1.000000000000000048e-04
1.552256926948939963e+03 1.778279410038922698e-04
1.604010419315001855e+03 3.162277660168379394e-04
1.651525787375383061e+03 5.623413251903490971e-04
1.701893239298741264e+03 1.000000000000000021e-03
1.756927076592610092e+03 1.778279410038922752e-03
1.816568572467600006e+03 3.162277660168379394e-03
1.879837495931491276e+03 5.623413251903490971e-03
1.946759675935040832e+03 1.000000000000000021e-02
2.020272321687508793e+03 1.778279410038922925e-02
2.103261366249639650e+03 3.162277660168379134e-02
2.202218900080662479e+03 5.623413251903491145e-02
2.339279202112781604e+03 1.000000000000000056e-01
2.516516009289230624e+03 1.778279410038922925e-01
2.700247391345213600e+03 3.162277660168379412e-01
2.879202576344415320e+03 5.623413251903490728e-01
3.063536999272433604e+03 1.000000000000000000e+00
3.257051296173545779e+03 1.778279410038922759e+00
3.462179402829982337e+03 3.162277660168379523e+00
3.681449527334169943e+03 5.623413251903491172e+00
3.918706725844430366e+03 1.000000000000000000e+01
4.179151154427823712e+03 1.778279410038922848e+01
4.469147297976634945e+03 3.162277660168379256e+01
4.796991245768303997e+03 5.623413251903490817e+01
5.177592481679339471e+03 1.000000000000000000e+02
5.621113725322867140e+03 1.778279410038922776e+02
6.146839336273407753e+03 3.162277660168379612e+02
