# Temperature (K), Pressure (bars)
8.032114590509409027e+02 5.623413251903490700e-05
8.528559062433880626e+02 1.000000000000000048e-04
9.025003547672154127e+02 1.778279410038922698e-04
9.507642276079189969e+02 3.162277660168379394e-04
9.989157915456119099e+02 5.623413251903490971e-04
1.048444920572024103e+03 1.000000000000000021e-03
1.101239052499350692e+03 1.778279410038922752e-03
1.159885689106668451e+03 3.162277660168379394e-03
1.227712524142199754e+03 5.623413251903490971e-03
1.308892837190734326e+03 1.000000000000000021e-02
1.415290548580534278e+03 1.778279410038922925e-02
1.584191122115363441e+03 3.162277660168379134e-02
1.825002396695872676e+03 5.623413251903491145e-02
2.083505200482695273e+03 1.000000000000000056e-01
2.322342211018692069e+03 1.778279410038922925e-01
2.541237703472394060e+03 3.162277660168379412e-01
2.745041847739919831e+03 5.623413251903490728e-01
2.941477886406157722e+03 1.000000000000000000e+00
3.137653809196195652e+03 1.778279410038922759e+00
3.339721001155125577e+03 3.162277660168379523e+00
3.552964374842079906e+03 5.623413251903491172e+00
3.782225414658410955e+03 1.000000000000000000e+01
4.032665906353709488e+03 1.778279410038922848e+01
4.312554257544760731e+03 3.162277660168379256e+01
4.626758198216957680e+03 5.623413251903490817e+01
4.983649710015340133e+03 1.000000000000000000e+02
5.387059036003208348e+03 1.778279410038922776e+02
5.864691476105325819e+03 3.162277660168379612e+02
