# Temperature (K), Pressure (bars)
1.863721549741903345e+03 5.623413251903491208e-06
1.868107218976749209e+03 1.000000000000000082e-05
1.873503844930582545e+03 1.778279410038922901e-05
1.881502353296153842e+03 3.162277660168379530e-05
1.893695518446506412e+03 5.623413251903490700e-05
1.911620280362249332e+03 1.000000000000000048e-04
1.935082301411104254e+03 1.778279410038922698e-04
1.963868945605191584e+03 3.162277660168379394e-04
1.999019533072013701e+03 5.623413251903490971e-04
2.040433480302559929e+03 1.000000000000000021e-03
2.086496629791749001e+03 1.778279410038922752e-03
2.136850668408620550e+03 3.162277660168379394e-03
2.190924071305043981e+03 5.623413251903490971e-03
2.251600057745630693e+03 1.000000000000000021e-02
2.318013832953047768e+03 1.778279410038922925e-02
2.402111263144147415e+03 3.162277660168379134e-02
2.525358241668202481e+03 5.623413251903491145e-02
2.671142307931263986e+03 1.000000000000000056e-01
2.821156928246496136e+03 1.778279410038922925e-01
2.979680026345811712e+03 3.162277660168379412e-01
3.149463546236084312e+03 5.623413251903490728e-01
3.332897947293005018e+03 1.000000000000000000e+00
3.531470422792735917e+03 1.778279410038922759e+00
3.746568301139957839e+03 3.162277660168379523e+00
3.981201916300325593e+03 5.623413251903491172e+00
4.240564433727731739e+03 1.000000000000000000e+01
4.531708957573579028e+03 1.778279410038922848e+01
4.864063479598292361e+03 3.162277660168379256e+01
5.253301461915244545e+03 5.623413251903490817e+01
5.715017332297787107e+03 1.000000000000000000e+02
6.275104093849083256e+03 1.778279410038922776e+02
6.973151289010520486e+03 3.162277660168379612e+02
