# Temperature (K), Pressure (bars)
1.667121093845456244e+03 3.162277660168379191e-06
1.687038307030870328e+03 5.623413251903491208e-06
1.706955523308596412e+03 1.000000000000000082e-05
1.732066243326376025e+03 1.778279410038922901e-05
1.763423860996450912e+03 3.162277660168379530e-05
1.803234364549977499e+03 5.623413251903490700e-05
1.851255858025185262e+03 1.000000000000000048e-04
1.905668827072445993e+03 1.778279410038922698e-04
1.965581098586848157e+03 3.162277660168379394e-04
2.030627952652513159e+03 5.623413251903490971e-04
2.100132714754818153e+03 1.000000000000000021e-03
2.175263528589167436e+03 1.778279410038922752e-03
2.264373150362614979e+03 3.162277660168379394e-03
2.371543359819260331e+03 5.623413251903490971e-03
2.489087810327335774e+03 1.000000000000000021e-02
2.612637862097788457e+03 1.778279410038922925e-02
2.743952622107720345e+03 3.162277660168379134e-02
2.884466527152531398e+03 5.623413251903491145e-02
3.035811982210294445e+03 1.000000000000000056e-01
3.200047802839887026e+03 1.778279410038922925e-01
3.379715478691792214e+03 3.162277660168379412e-01
3.577566182196836508e+03 5.623413251903490728e-01
3.796458911301172520e+03 1.000000000000000000e+00
4.040557252022796092e+03 1.778279410038922759e+00
4.317418427152740151e+03 3.162277660168379523e+00
4.639507015622393737e+03 5.623413251903491172e+00
5.019368493045705691e+03 1.000000000000000000e+01
5.495908803120485572e+03 1.778279410038922848e+01
6.124788613312292000e+03 3.162277660168379256e+01
6.998866664702106391e+03 5.623413251903490817e+01
8.266447660489055124e+03 1.000000000000000000e+02
1.000000000000000000e+04 1.778279410038922776e+02
1.000000000000000000e+04 3.162277660168379612e+02
