# Temperature (K), Pressure (bars)
1.475442377646752675e+03 9.999999999999999547e-07
1.497653166765932383e+03 1.778279410038922901e-06
1.519863955885157338e+03 3.162277660168379191e-06
1.547921681813667874e+03 5.623413251903491208e-06
1.583244698406412681e+03 1.000000000000000082e-05
1.624439260787530657e+03 1.778279410038922901e-05
1.671352827959356091e+03 3.162277660168379530e-05
1.725839659343837866e+03 5.623413251903490700e-05
1.787111649251870176e+03 1.000000000000000048e-04
1.853721042921070875e+03 1.778279410038922698e-04
1.926100932181384906e+03 3.162277660168379394e-04
2.003010238499402021e+03 5.623413251903490971e-04
2.089078062295237032e+03 1.000000000000000021e-03
2.193640298120339139e+03 1.778279410038922752e-03
2.312496116592365979e+03 3.162277660168379394e-03
2.437125124329314531e+03 5.623413251903490971e-03
2.566950543813072727e+03 1.000000000000000021e-02
2.703425225233294441e+03 1.778279410038922925e-02
2.848162331629653636e+03 3.162277660168379134e-02
3.003014819129152329e+03 5.623413251903491145e-02
3.170466952145639425e+03 1.000000000000000056e-01
3.353741827319975528e+03 1.778279410038922925e-01
3.556419953553032883e+03 3.162277660168379412e-01
3.782547093831174607e+03 5.623413251903490728e-01
4.038821879283174894e+03 1.000000000000000000e+00
4.337993349292757557e+03 1.778279410038922759e+00
4.682701841026591865e+03 3.162277660168379523e+00
5.125938934537136447e+03 5.623413251903491172e+00
5.740228389986022194e+03 1.000000000000000000e+01
6.646359244998972827e+03 1.778279410038922848e+01
7.997550816889090129e+03 3.162277660168379256e+01
9.785116628693265739e+03 5.623413251903490817e+01
1.191602951344524990e+04 1.000000000000000000e+02
1.450441522379480375e+04 1.778279410038922776e+02
1.758961527247320191e+04 3.162277660168379612e+02
