# Temperature (K), Pressure (bars)
9.676556514525716466e+02 3.162277660168379394e-04
1.018439236444729886e+03 5.623413251903490971e-04
1.069222822326321875e+03 1.000000000000000021e-03
1.117002985059945104e+03 1.778279410038922752e-03
1.161564871609523607e+03 3.162277660168379394e-03
1.206651833955430675e+03 5.623413251903490971e-03
1.255859760767290936e+03 1.000000000000000021e-02
1.313795830376141339e+03 1.778279410038922925e-02
1.388244089733165765e+03 3.162277660168379134e-02
1.477296368310682965e+03 5.623413251903491145e-02
1.579326615602755737e+03 1.000000000000000056e-01
1.699365862081922614e+03 1.778279410038922925e-01
1.834209860412641092e+03 3.162277660168379412e-01
1.973978156116370428e+03 5.623413251903490728e-01
2.148663960586803569e+03 1.000000000000000000e+00
2.393857190556966088e+03 1.778279410038922759e+00
2.662619403284422788e+03 3.162277660168379523e+00
2.916644593399372752e+03 5.623413251903491172e+00
3.167464548389003085e+03 1.000000000000000000e+01
3.422139445573846842e+03 1.778279410038922848e+01
3.689021797974683068e+03 3.162277660168379256e+01
3.974605081422954754e+03 5.623413251903490817e+01
4.285818052974273087e+03 1.000000000000000000e+02
4.625868306496666264e+03 1.778279410038922776e+02
5.012200597094107252e+03 3.162277660168379612e+02
