# Temperature (K), Pressure (bars)
2.008481077137439115e+03 9.999999999999999547e-07
2.018414026765839935e+03 1.778279410038922901e-06
2.028346976395267575e+03 3.162277660168379191e-06
2.041952047454706417e+03 5.623413251903491208e-06
2.062335048014565928e+03 1.000000000000000082e-05
2.090670278918709300e+03 1.778279410038922901e-05
2.126775053860459593e+03 3.162277660168379530e-05
2.169712428982227266e+03 5.623413251903490700e-05
2.215917073993757640e+03 1.000000000000000048e-04
2.262034745812513847e+03 1.778279410038922698e-04
2.306983251853608635e+03 3.162277660168379394e-04
2.349536522597943986e+03 5.623413251903490971e-04
2.388293141597548129e+03 1.000000000000000021e-03
2.423325256026661918e+03 1.778279410038922752e-03
2.455667800799138604e+03 3.162277660168379394e-03
2.488979040945708675e+03 5.623413251903490971e-03
2.526752608603505450e+03 1.000000000000000021e-02
2.578823692351174941e+03 1.778279410038922925e-02
2.665986812807225760e+03 3.162277660168379134e-02
2.788173554099695139e+03 5.623413251903491145e-02
2.926792439683662451e+03 1.000000000000000056e-01
3.077822581404152515e+03 1.778279410038922925e-01
3.245795856735294365e+03 3.162277660168379412e-01
3.432109946161301195e+03 5.623413251903490728e-01
3.636786400046076324e+03 1.000000000000000000e+00
3.860896349995387027e+03 1.778279410038922759e+00
4.108523229737282236e+03 3.162277660168379523e+00
4.387038378254850613e+03 5.623413251903491172e+00
4.707202658693311605e+03 1.000000000000000000e+01
5.083024467424907925e+03 1.778279410038922848e+01
5.540878978908501267e+03 3.162277660168379256e+01
6.119965400921685614e+03 5.623413251903490817e+01
6.888899523852523089e+03 1.000000000000000000e+02
7.961156705638708445e+03 1.778279410038922776e+02
9.470657887578834561e+03 3.162277660168379612e+02
