# Temperature (K), Pressure (bars)
8.090878091261948839e+02 3.162277660168379394e-04
8.551983623921261142e+02 5.623413251903490971e-04
9.013089168706746932e+02 1.000000000000000021e-03
9.464085859701528989e+02 1.778279410038922752e-03
9.916621662824129544e+02 3.162277660168379394e-03
1.037944883972791104e+03 5.623413251903490971e-03
1.086329727217461823e+03 1.000000000000000021e-02
1.139811207970315081e+03 1.778279410038922925e-02
1.203368864344432723e+03 3.162277660168379134e-02
1.282567755081270207e+03 5.623413251903491145e-02
1.390435179443996958e+03 1.000000000000000056e-01
1.563122391287662140e+03 1.778279410038922925e-01
1.808859894573217844e+03 3.162277660168379412e-01
2.079904997697436102e+03 5.623413251903490728e-01
2.344850131623347352e+03 1.000000000000000000e+00
2.599468738789037616e+03 1.778279410038922759e+00
2.842449315484923318e+03 3.162277660168379523e+00
3.079378091508252965e+03 5.623413251903491172e+00
3.317817189730054906e+03 1.000000000000000000e+01
3.565146637394644131e+03 1.778279410038922848e+01
3.830169208022915882e+03 3.162277660168379256e+01
4.117741350946950661e+03 5.623413251903490817e+01
4.434511891356346496e+03 1.000000000000000000e+02
4.783555184379048114e+03 1.778279410038922776e+02
5.183695769177917100e+03 3.162277660168379612e+02
