# Temperature (K), Pressure (bars)
2.219944439560652427e+03 9.999999999999999547e-07
2.253427569872588720e+03 1.778279410038922901e-06
2.286910700184524103e+03 3.162277660168379191e-06
2.323212932188112973e+03 5.623413251903491208e-06
2.362346641942918723e+03 1.000000000000000082e-05
2.403321848635789593e+03 1.778279410038922901e-05
2.444647014419494553e+03 3.162277660168379530e-05
2.483928768075883454e+03 5.623413251903490700e-05
2.518659963766653618e+03 1.000000000000000048e-04
2.547990667570760252e+03 1.778279410038922698e-04
2.574234272164180311e+03 3.162277660168379394e-04
2.602418431059523300e+03 5.623413251903490971e-04
2.638015575220048959e+03 1.000000000000000021e-03
2.684997187703817417e+03 1.778279410038922752e-03
2.745125559465150218e+03 3.162277660168379394e-03
2.818863428880546508e+03 5.623413251903490971e-03
2.903952765219474713e+03 1.000000000000000021e-02
2.999206246467480469e+03 1.778279410038922925e-02
3.115946216770497358e+03 3.162277660168379134e-02
3.267408801041229253e+03 5.623413251903491145e-02
3.457479583100912805e+03 1.000000000000000056e-01
3.668232032965719100e+03 1.778279410038922925e-01
3.926016618001854567e+03 3.162277660168379412e-01
4.229928744418682982e+03 5.623413251903490728e-01
4.643205410503718667e+03 1.000000000000000000e+00
5.279776380353406239e+03 1.778279410038922759e+00
6.325471384214666614e+03 3.162277660168379523e+00
7.813910786933355666e+03 5.623413251903491172e+00
9.527337028021102014e+03 1.000000000000000000e+01
1.000000000000000000e+04 1.778279410038922848e+01
1.000000000000000000e+04 3.162277660168379256e+01
1.000000000000000000e+04 5.623413251903490817e+01
1.000000000000000000e+04 1.000000000000000000e+02
1.000000000000000000e+04 1.778279410038922776e+02
1.000000000000000000e+04 3.162277660168379612e+02
