# Temperature (K), Pressure (bars)
1.449284794402310945e+04 9.999999999999999547e-07
1.754265459338675646e+04 1.778279410038922901e-06
2.122368710002074295e+04 3.162277660168379191e-06
2.541677126069662336e+04 5.623413251903491208e-06
2.986627285963628310e+04 1.000000000000000082e-05
3.422989886901943100e+04 1.778279410038922901e-05
3.821230978609659360e+04 3.162277660168379530e-05
4.168654435078254755e+04 5.623413251903490700e-05
4.468959671824103134e+04 1.000000000000000048e-04
4.734754055674133997e+04 1.778279410038922698e-04
4.979724959158903221e+04 3.162277660168379394e-04
5.215297547891571594e+04 5.623413251903490971e-04
5.450672932074125129e+04 1.000000000000000021e-03
5.692829307393868658e+04 1.778279410038922752e-03
5.948196624568690459e+04 3.162277660168379394e-03
6.223403967976257263e+04 5.623413251903490971e-03
6.525864376884290687e+04 1.000000000000000021e-02
6.865033290334975754e+04 1.778279410038922925e-02
7.252810932363677421e+04 3.162277660168379134e-02
7.704855889592604944e+04 5.623413251903491145e-02
8.242135335141675023e+04 1.000000000000000056e-01
8.891635034734693181e+04 1.778279410038922925e-01
9.688988938081623928e+04 3.162277660168379412e-01
1.068041902449791960e+05 5.623413251903490728e-01
1.192456511625526909e+05 1.000000000000000000e+00
1.349644547201656387e+05 1.778279410038922759e+00
1.548983571659642621e+05 3.162277660168379523e+00
1.802253440652878198e+05 5.623413251903491172e+00
2.123940810411626881e+05 1.000000000000000000e+01
2.531807294753429014e+05 1.778279410038922848e+01
3.046630936709903763e+05 3.162277660168379256e+01
3.692218125003523892e+05 5.623413251903490817e+01
4.493269622206563363e+05 1.000000000000000000e+02
5.470849443542408990e+05 1.778279410038922776e+02
6.637230035655929241e+05 3.162277660168379612e+02
