# Temperature (K), Pressure (bars)
8.019084864093372289e+02 3.162277660168379394e-04
8.358033643475952204e+02 5.623413251903490971e-04
8.696982432772740594e+02 1.000000000000000021e-03
9.049305029566285157e+02 1.778279410038922752e-03
9.414669166987946483e+02 3.162277660168379394e-03
9.795576993939237127e+02 5.623413251903490971e-03
1.019220398433392575e+03 1.000000000000000021e-02
1.060178055208196838e+03 1.778279410038922925e-02
1.105202396060690944e+03 3.162277660168379134e-02
1.157238318067470118e+03 5.623413251903491145e-02
1.224145811216247921e+03 1.000000000000000056e-01
1.308544001637093743e+03 1.778279410038922925e-01
1.439507145354386239e+03 3.162277660168379412e-01
1.651616290640557963e+03 5.623413251903490728e-01
1.909330819363834053e+03 1.000000000000000000e+00
2.181090095767366620e+03 1.778279410038922759e+00
2.460637985595011742e+03 3.162277660168379523e+00
2.733766563749248235e+03 5.623413251903491172e+00
2.999135435022056299e+03 1.000000000000000000e+01
3.262752891398625707e+03 1.778279410038922848e+01
3.534357697648395060e+03 3.162277660168379256e+01
3.820370262550032294e+03 5.623413251903490817e+01
4.127949332038529974e+03 1.000000000000000000e+02
4.460941592466850125e+03 1.778279410038922776e+02
4.835058863152189588e+03 3.162277660168379612e+02
