# Temperature (K), Pressure (bars)
4.087507496973379148e+03 9.999999999999999547e-07
5.079030077955962952e+03 1.778279410038922901e-06
6.146195544134126976e+03 3.162277660168379191e-06
6.460111536934886317e+03 5.623413251903491208e-06
6.680260029891847807e+03 1.000000000000000082e-05
6.937248267615826990e+03 1.778279410038922901e-05
7.169174887586967998e+03 3.162277660168379530e-05
7.395835153969366729e+03 5.623413251903490700e-05
7.632917300414878810e+03 1.000000000000000048e-04
7.882307608502077528e+03 1.778279410038922698e-04
8.147272755522251828e+03 3.162277660168379394e-04
8.430151649307115804e+03 5.623413251903490971e-04
8.731862828547402387e+03 1.000000000000000021e-03
9.055184710330828239e+03 1.778279410038922752e-03
9.403464416497816273e+03 3.162277660168379394e-03
9.779697720960688457e+03 5.623413251903490971e-03
1.018538444507190434e+04 1.000000000000000021e-02
1.062104346193394667e+04 1.778279410038922925e-02
1.108708552212602444e+04 3.162277660168379134e-02
1.158566482306281432e+04 5.623413251903491145e-02
1.212250629622877204e+04 1.000000000000000056e-01
1.270573009454481144e+04 1.778279410038922925e-01
1.334553795049470682e+04 3.162277660168379412e-01
1.405531649997891327e+04 5.623413251903490728e-01
1.485157262339115732e+04 1.000000000000000000e+00
1.575818130711366575e+04 1.778279410038922759e+00
1.680796483680275924e+04 3.162277660168379523e+00
1.804647002642698862e+04 5.623413251903491172e+00
1.954458198485535831e+04 1.000000000000000000e+01
2.142607258130575792e+04 1.778279410038922848e+01
2.391244332379122716e+04 3.162277660168379256e+01
2.739740854808301083e+04 5.623413251903490817e+01
3.243337719019085125e+04 1.000000000000000000e+02
3.931867996221520298e+04 1.778279410038922776e+02
4.769713008081376756e+04 3.162277660168379612e+02
