# Temperature (K), Pressure (bars)
2.102125544377152437e+03 9.999999999999999547e-07
2.141032449511836603e+03 1.778279410038922901e-06
2.179939354662513779e+03 3.162277660168379191e-06
2.211663899536052668e+03 5.623413251903491208e-06
2.232776507756760111e+03 1.000000000000000082e-05
2.247809247633372252e+03 1.778279410038922901e-05
2.266946771991998503e+03 3.162277660168379530e-05
2.297806131892211852e+03 5.623413251903490700e-05
2.341155963857312145e+03 1.000000000000000048e-04
2.394448710007069167e+03 1.778279410038922698e-04
2.456281035554861319e+03 3.162277660168379394e-04
2.527268822558077773e+03 5.623413251903490971e-04
2.609125844974674692e+03 1.000000000000000021e-03
2.703333641432607237e+03 1.778279410038922752e-03
2.810387479479551530e+03 3.162277660168379394e-03
2.929972564377496838e+03 5.623413251903490971e-03
3.060858429955453175e+03 1.000000000000000021e-02
3.205784741330785437e+03 1.778279410038922925e-02
3.380123872774189749e+03 3.162277660168379134e-02
3.595406480859413932e+03 5.623413251903491145e-02
3.877911943281841559e+03 1.000000000000000056e-01
4.306695462485491589e+03 1.778279410038922925e-01
5.060750938651885008e+03 3.162277660168379412e-01
6.193642061908637515e+03 5.623413251903490728e-01
7.676690034140712669e+03 1.000000000000000000e+00
9.198667164978925939e+03 1.778279410038922759e+00
1.070074734643251941e+04 3.162277660168379523e+00
1.244776493942242814e+04 5.623413251903491172e+00
1.466631154926211639e+04 1.000000000000000000e+01
1.747854746279818937e+04 1.778279410038922848e+01
2.102815142561862376e+04 3.162277660168379256e+01
2.547818461941351779e+04 5.623413251903490817e+01
3.099808652450069712e+04 1.000000000000000000e+02
3.773555782302361331e+04 1.778279410038922776e+02
4.577329479840010754e+04 3.162277660168379612e+02
