# Temperature (K), Pressure (bars)
2.353299949381122133e+03 9.999999999999999547e-07
2.360770577576314281e+03 1.778279410038922901e-06
2.368241205771506429e+03 3.162277660168379191e-06
2.387103179070908027e+03 5.623413251903491208e-06
2.418529433372434596e+03 1.000000000000000082e-05
2.451871070684864208e+03 1.778279410038922901e-05
2.485291435586041644e+03 3.162277660168379530e-05
2.519979267785061893e+03 5.623413251903490700e-05
2.554164630524751374e+03 1.000000000000000048e-04
2.586524777058519248e+03 1.778279410038922698e-04
2.612889840990595076e+03 3.162277660168379394e-04
2.628887172669086340e+03 5.623413251903490971e-04
2.639706704815195280e+03 1.000000000000000021e-03
2.659982863631873443e+03 1.778279410038922752e-03
2.700122924777134813e+03 3.162277660168379394e-03
2.757496153129383401e+03 5.623413251903490971e-03
2.824796634297296805e+03 1.000000000000000021e-02
2.886047794541462281e+03 1.778279410038922925e-02
2.952774934718147051e+03 3.162277660168379134e-02
3.065541066013776799e+03 5.623413251903491145e-02
3.215593852010454157e+03 1.000000000000000056e-01
3.384117366182486876e+03 1.778279410038922925e-01
3.579964482939871232e+03 3.162277660168379412e-01
3.807793869641856418e+03 5.623413251903490728e-01
4.072392087265167902e+03 1.000000000000000000e+00
4.371673184797297836e+03 1.778279410038922759e+00
4.729532936290397629e+03 3.162277660168379523e+00
5.198301742330685556e+03 5.623413251903491172e+00
5.868569833451026170e+03 1.000000000000000000e+01
6.903411915739567121e+03 1.778279410038922848e+01
8.411164819512890972e+03 3.162277660168379256e+01
1.000000000000000000e+04 5.623413251903490817e+01
1.000000000000000000e+04 1.000000000000000000e+02
1.000000000000000000e+04 1.778279410038922776e+02
1.000000000000000000e+04 3.162277660168379612e+02
