# Temperature (K), Pressure (bars)
2.252321379553863153e+03 9.999999999999999547e-07
2.276600256459046250e+03 1.778279410038922901e-06
2.300879133364230256e+03 3.162277660168379191e-06
2.326317109290152530e+03 5.623413251903491208e-06
2.353729287363016738e+03 1.000000000000000082e-05
2.383487755326385923e+03 1.778279410038922901e-05
2.414861707994057724e+03 3.162277660168379530e-05
2.446429804720274660e+03 5.623413251903490700e-05
2.475953077621106331e+03 1.000000000000000048e-04
2.500961833516280421e+03 1.778279410038922698e-04
2.521389668407220597e+03 3.162277660168379394e-04
2.540694250854872735e+03 5.623413251903490971e-04
2.563906257816509424e+03 1.000000000000000021e-03
2.595297915616311002e+03 1.778279410038922752e-03
2.637005754649027494e+03 3.162277660168379394e-03
2.691118571774519296e+03 5.623413251903490971e-03
2.758702295190533277e+03 1.000000000000000021e-02
2.844910074974957297e+03 1.778279410038922925e-02
2.957522109091713901e+03 3.162277660168379134e-02
3.092238526752586040e+03 5.623413251903491145e-02
3.244586243341159843e+03 1.000000000000000056e-01
3.419168439504985599e+03 1.778279410038922925e-01
3.622254153582936851e+03 3.162277660168379412e-01
3.861155006461262474e+03 5.623413251903490728e-01
4.148366432435682327e+03 1.000000000000000000e+00
4.460697758630743920e+03 1.778279410038922759e+00
4.858916752943790016e+03 3.162277660168379523e+00
5.405882175006775469e+03 5.623413251903491172e+00
6.226969742351851892e+03 1.000000000000000000e+01
7.498842334963425856e+03 1.778279410038922848e+01
9.203099003361177893e+03 3.162277660168379256e+01
1.121385037884665689e+04 5.623413251903490817e+01
1.364457495027838740e+04 1.000000000000000000e+02
1.661238306442137764e+04 1.778279410038922776e+02
2.015157321111974306e+04 3.162277660168379612e+02
