# Temperature (K), Pressure (bars)
1.077575621773965622e+03 5.623413251903490700e-05
1.119152175654842949e+03 1.000000000000000048e-04
1.160728731787670768e+03 1.778279410038922698e-04
1.205876811797798382e+03 3.162277660168379394e-04
1.255235967579047610e+03 5.623413251903490971e-04
1.308825150414234031e+03 1.000000000000000021e-03
1.368691089647797526e+03 1.778279410038922752e-03
1.434142238069526684e+03 3.162277660168379394e-03
1.506427398320901602e+03 5.623413251903490971e-03
1.592168188998266942e+03 1.000000000000000021e-02
1.683513792815548641e+03 1.778279410038922925e-02
1.774241155009397517e+03 3.162277660168379134e-02
1.876912659994427258e+03 5.623413251903491145e-02
2.004387411899726430e+03 1.000000000000000056e-01
2.179386636522922799e+03 1.778279410038922925e-01
2.401140026113846488e+03 3.162277660168379412e-01
2.622722499061600502e+03 5.623413251903490728e-01
2.828189745502538244e+03 1.000000000000000000e+00
3.032711953498339426e+03 1.778279410038922759e+00
3.241615323748364517e+03 3.162277660168379523e+00
3.458920293581499209e+03 5.623413251903491172e+00
3.689279270208995513e+03 1.000000000000000000e+01
3.938042517625926848e+03 1.778279410038922848e+01
4.212952595387698238e+03 3.162277660168379256e+01
4.519565878453717232e+03 5.623413251903490817e+01
4.865774564346563238e+03 1.000000000000000000e+02
5.255290912997366831e+03 1.778279410038922776e+02
5.713111522245032575e+03 3.162277660168379612e+02
