# Temperature (K), Pressure (bars)
9.002406362629385512e+02 5.623413251903490700e-05
9.489537019469403276e+02 1.000000000000000048e-04
9.976667671000773225e+02 1.778279410038922698e-04
1.041865040835363061e+03 3.162277660168379394e-04
1.082995176859450794e+03 5.623413251903490971e-04
1.120427050675935789e+03 1.000000000000000021e-03
1.151990571099029921e+03 1.778279410038922752e-03
1.180295478804501499e+03 3.162277660168379394e-03
1.209548856616583180e+03 5.623413251903490971e-03
1.242558456736529251e+03 1.000000000000000021e-02
1.281156355177649175e+03 1.778279410038922925e-02
1.325384587885010887e+03 3.162277660168379134e-02
1.371234732083172048e+03 5.623413251903491145e-02
1.418010056247640250e+03 1.000000000000000056e-01
1.493276321432780833e+03 1.778279410038922925e-01
1.615273078658475470e+03 3.162277660168379412e-01
1.801461621488392439e+03 5.623413251903490728e-01
2.067399182879073578e+03 1.000000000000000000e+00
2.355285145732952060e+03 1.778279410038922759e+00
2.623471183255837332e+03 3.162277660168379523e+00
2.881164277257275899e+03 5.623413251903491172e+00
3.133564703836875196e+03 1.000000000000000000e+01
3.388526046703184420e+03 1.778279410038922848e+01
3.655807228517079693e+03 3.162277660168379256e+01
3.941042395394311825e+03 5.623413251903490817e+01
4.251124380210324489e+03 1.000000000000000000e+02
4.589253859128421936e+03 1.778279410038922776e+02
4.972609459188609435e+03 3.162277660168379612e+02
