# Temperature (K), Pressure (bars)
8.380231262021319480e+02 1.778279410038922901e-05
8.954963755210305862e+02 3.162277660168379530e-05
9.529696263416776674e+02 5.623413251903490700e-05
1.007066507698567534e+03 1.000000000000000048e-04
1.052315668709041802e+03 1.778279410038922698e-04
1.090676748250486753e+03 3.162277660168379394e-04
1.128203598410066888e+03 5.623413251903490971e-04
1.166021274535517932e+03 1.000000000000000021e-03
1.202132282231470526e+03 1.778279410038922752e-03
1.235902179526561440e+03 3.162277660168379394e-03
1.268880360045196085e+03 5.623413251903490971e-03
1.303216199111844389e+03 1.000000000000000021e-02
1.339868223477166794e+03 1.778279410038922925e-02
1.373684017285391519e+03 3.162277660168379134e-02
1.417884828798246645e+03 5.623413251903491145e-02
1.504333579796973481e+03 1.000000000000000056e-01
1.642711296281346904e+03 1.778279410038922925e-01
1.826908837027184973e+03 3.162277660168379412e-01
2.058956157739354239e+03 5.623413251903490728e-01
2.326783919847364814e+03 1.000000000000000000e+00
2.590766167695297099e+03 1.778279410038922759e+00
2.835884283160545692e+03 3.162277660168379523e+00
3.074214308326386345e+03 5.623413251903491172e+00
3.313560699846753323e+03 1.000000000000000000e+01
3.561413538174447694e+03 1.778279410038922848e+01
3.826581174007696518e+03 3.162277660168379256e+01
4.114179603564592981e+03 5.623413251903490817e+01
4.430920565299557893e+03 1.000000000000000000e+02
4.779989359467957911e+03 1.778279410038922776e+02
5.179811686497565461e+03 3.162277660168379612e+02
