# Temperature (K), Pressure (bars)
1.024734017579747615e+03 3.162277660168379394e-04
1.086030127922181236e+03 5.623413251903490971e-04
1.147326239658293389e+03 1.000000000000000021e-03
1.207044398029227068e+03 1.778279410038922752e-03
1.266331649869416196e+03 3.162277660168379394e-03
1.328959855996962915e+03 5.623413251903490971e-03
1.397767382109439268e+03 1.000000000000000021e-02
1.479408717895298651e+03 1.778279410038922925e-02
1.579412435925807586e+03 3.162277660168379134e-02
1.732666017879748324e+03 5.623413251903491145e-02
1.965135941720664277e+03 1.000000000000000056e-01
2.217299601208644617e+03 1.778279410038922925e-01
2.445305009675196288e+03 3.162277660168379412e-01
2.658382279236011072e+03 5.623413251903490728e-01
2.863383716813336832e+03 1.000000000000000000e+00
3.066660991678781102e+03 1.778279410038922759e+00
3.273562828470150635e+03 3.162277660168379523e+00
3.489201601252936143e+03 5.623413251903491172e+00
3.718717444693334983e+03 1.000000000000000000e+01
3.967453493738623820e+03 1.778279410038922848e+01
4.243319691841345048e+03 3.162277660168379256e+01
4.551433656752504248e+03 5.623413251903490817e+01
4.899793073159188680e+03 1.000000000000000000e+02
5.292070812802362525e+03 1.778279410038922776e+02
5.753592968604882117e+03 3.162277660168379612e+02
