# Temperature (K), Pressure (bars)
1.523895004157031735e+03 3.162277660168379530e-05
1.542551503395246073e+03 5.623413251903490700e-05
1.561208004330531367e+03 1.000000000000000048e-04
1.583875502845189658e+03 1.778279410038922698e-04
1.613220154313418561e+03 3.162277660168379394e-04
1.648708033839219070e+03 5.623413251903490971e-04
1.690303431006572282e+03 1.000000000000000021e-03
1.737913689677792490e+03 1.778279410038922752e-03
1.789989188390733261e+03 3.162277660168379394e-03
1.846352618544439110e+03 5.623413251903490971e-03
1.906526347635138563e+03 1.000000000000000021e-02
1.971125945303546587e+03 1.778279410038922925e-02
2.041255533007823033e+03 3.162277660168379134e-02
2.122887939963532972e+03 5.623413251903491145e-02
2.215718752704141480e+03 1.000000000000000056e-01
2.343085126967687756e+03 1.778279410038922925e-01
2.530732382067303206e+03 3.162277660168379412e-01
2.734161503538194211e+03 5.623413251903490728e-01
2.926042492715030221e+03 1.000000000000000000e+00
3.122460129793721535e+03 1.778279410038922759e+00
3.328127215796058863e+03 3.162277660168379523e+00
3.545767429545927371e+03 5.623413251903491172e+00
3.778706838963687005e+03 1.000000000000000000e+01
4.031783729658338871e+03 1.778279410038922848e+01
4.312516260187167973e+03 3.162277660168379256e+01
4.627419302783874627e+03 5.623413251903490817e+01
4.985099013001925414e+03 1.000000000000000000e+02
5.389689953306978168e+03 1.778279410038922776e+02
5.868775225592333300e+03 3.162277660168379612e+02
