# Temperature (K), Pressure (bars)
9.060584771286753494e+02 3.162277660168379394e-04
9.600068275476436384e+02 5.623413251903490971e-04
1.013955179431838133e+03 1.000000000000000021e-03
1.066109751486128289e+03 1.778279410038922752e-03
1.117918976554435176e+03 3.162277660168379394e-03
1.170646782332431258e+03 5.623413251903490971e-03
1.225782501138242424e+03 1.000000000000000021e-02
1.285589769536780750e+03 1.778279410038922925e-02
1.357138041507536173e+03 3.162277660168379134e-02
1.454409622673272679e+03 5.623413251903491145e-02
1.587798191445183193e+03 1.000000000000000056e-01
1.756247994412546177e+03 1.778279410038922925e-01
1.970642292990999977e+03 3.162277660168379412e-01
2.229173006229697876e+03 5.623413251903490728e-01
2.487747209283989378e+03 1.000000000000000000e+00
2.726365548325617056e+03 1.778279410038922759e+00
2.956527703259534974e+03 3.162277660168379523e+00
3.185205999130356759e+03 5.623413251903491172e+00
3.419128802875399742e+03 1.000000000000000000e+01
3.664851554756869973e+03 1.778279410038922848e+01
3.930591934925163514e+03 3.162277660168379256e+01
4.221314816055850315e+03 5.623413251903490817e+01
4.543809755491094620e+03 1.000000000000000000e+02
4.901143833369746062e+03 1.778279410038922776e+02
5.313434502502735995e+03 3.162277660168379612e+02
