# Temperature (K), Pressure (bars)
9.356572496159865295e+02 1.778279410038922901e-05
9.825773757456811381e+02 3.162277660168379530e-05
1.029495583660844659e+03 5.623413251903490700e-05
1.071935040501781941e+03 1.000000000000000048e-04
1.114276306516929253e+03 1.778279410038922698e-04
1.159608012365913055e+03 3.162277660168379394e-04
1.209449988639916000e+03 5.623413251903490971e-04
1.265170837791917620e+03 1.000000000000000021e-03
1.331175745510110119e+03 1.778279410038922752e-03
1.417376036229859665e+03 3.162277660168379394e-03
1.525859550524689439e+03 5.623413251903490971e-03
1.648435638235737770e+03 1.000000000000000021e-02
1.775743447344068045e+03 1.778279410038922925e-02
1.914944869098481831e+03 3.162277660168379134e-02
2.090537701891187680e+03 5.623413251903491145e-02
2.294885795351836350e+03 1.000000000000000056e-01
2.495902099142800580e+03 1.778279410038922925e-01
2.686733185327295359e+03 3.162277660168379412e-01
2.875031188093909805e+03 5.623413251903490728e-01
3.065054067950783974e+03 1.000000000000000000e+00
3.259988141770430047e+03 1.778279410038922759e+00
3.463641893973484002e+03 3.162277660168379523e+00
3.680621811467945008e+03 5.623413251903491172e+00
3.915824181098499594e+03 1.000000000000000000e+01
4.174561906244877719e+03 1.778279410038922848e+01
4.463084544519957490e+03 3.162277660168379256e+01
4.789568940920989917e+03 5.623413251903490817e+01
5.169111468243655509e+03 1.000000000000000000e+02
5.610918051717008893e+03 1.778279410038922776e+02
6.133979012460918057e+03 3.162277660168379612e+02
