# Temperature (K), Pressure (bars)
9.209959115394755145e+02 3.162277660168379530e-05
9.636289868952990219e+02 5.623413251903490700e-05
1.006262063105360539e+03 1.000000000000000048e-04
1.049745284974263996e+03 1.778279410038922698e-04
1.096161922198860339e+03 3.162277660168379394e-04
1.145681583795628057e+03 5.623413251903490971e-04
1.197795714419911747e+03 1.000000000000000021e-03
1.252572420693759113e+03 1.778279410038922752e-03
1.311254173803419917e+03 3.162277660168379394e-03
1.380525554836555102e+03 5.623413251903490971e-03
1.481888412016028269e+03 1.000000000000000021e-02
1.626442414005667388e+03 1.778279410038922925e-02
1.816767742002895147e+03 3.162277660168379134e-02
2.048061547713491109e+03 5.623413251903491145e-02
2.277970017465469937e+03 1.000000000000000056e-01
2.484517551523078509e+03 1.778279410038922925e-01
2.679659943111611028e+03 3.162277660168379412e-01
2.870040294338897638e+03 5.623413251903490728e-01
3.060372198813106024e+03 1.000000000000000000e+00
3.254711967992174777e+03 1.778279410038922759e+00
3.457588772805006101e+03 3.162277660168379523e+00
3.673816430516771561e+03 5.623413251903491172e+00
3.908256439020765811e+03 1.000000000000000000e+01
4.166149231265705566e+03 1.778279410038922848e+01
4.453651490696110159e+03 3.162277660168379256e+01
4.778856257637311501e+03 5.623413251903490817e+01
5.156862405631845832e+03 1.000000000000000000e+02
5.596574107596106842e+03 1.778279410038922776e+02
6.116221300515838266e+03 3.162277660168379612e+02
