# Temperature (K), Pressure (bars)
8.972684893053407222e+02 3.162277660168379394e-03
9.362586697038450438e+02 5.623413251903490971e-03
9.752488507678090173e+02 1.000000000000000021e-02
1.013541876257544459e+03 1.778279410038922925e-02
1.051480891222336140e+03 3.162277660168379134e-02
1.090127683694997131e+03 5.623413251903491145e-02
1.131273151687076279e+03 1.000000000000000056e-01
1.177409561401727387e+03 1.778279410038922925e-01
1.232236249972602764e+03 3.162277660168379412e-01
1.299573731478417812e+03 5.623413251903490728e-01
1.385582939103762101e+03 1.000000000000000000e+00
1.505748843524028416e+03 1.778279410038922759e+00
1.670265193093956896e+03 3.162277660168379523e+00
1.892967195680504119e+03 5.623413251903491172e+00
2.178404555179917224e+03 1.000000000000000000e+01
2.488846414617407845e+03 1.778279410038922848e+01
2.803340128610683678e+03 3.162277660168379256e+01
3.120504884803436198e+03 5.623413251903490817e+01
3.442429829920006341e+03 1.000000000000000000e+02
3.773165119129469531e+03 1.778279410038922776e+02
4.125938623815425672e+03 3.162277660168379612e+02
