# Temperature (K), Pressure (bars)
8.598397991987487785e+02 5.623413251903490700e-05
9.160294763494478048e+02 1.000000000000000048e-04
9.722191534773513695e+02 1.778279410038922698e-04
1.023222821836360367e+03 3.162277660168379394e-04
1.074058854751890067e+03 5.623413251903490971e-04
1.129019592359621583e+03 1.000000000000000021e-03
1.185685883329792887e+03 1.778279410038922752e-03
1.239252617883753373e+03 3.162277660168379394e-03
1.283796014465073995e+03 5.623413251903490971e-03
1.321089370543027144e+03 1.000000000000000021e-02
1.358760454530209245e+03 1.778279410038922925e-02
1.403807341359346765e+03 3.162277660168379134e-02
1.459353564478928547e+03 5.623413251903491145e-02
1.523962803741124162e+03 1.000000000000000056e-01
1.643293873288894247e+03 1.778279410038922925e-01
1.859607944741749407e+03 3.162277660168379412e-01
2.122541095876582403e+03 5.623413251903490728e-01
2.382474989238101443e+03 1.000000000000000000e+00
2.633179686689892151e+03 1.778279410038922759e+00
2.873724042576353440e+03 3.162277660168379523e+00
3.109492326391002734e+03 5.623413251903491172e+00
3.347517635190711644e+03 1.000000000000000000e+01
3.594949429147866795e+03 1.778279410038922848e+01
3.860287289351728305e+03 3.162277660168379256e+01
4.148817149342356970e+03 5.623413251903490817e+01
4.467271138370048902e+03 1.000000000000000000e+02
4.818678719493787867e+03 1.778279410038922776e+02
5.221830447393466784e+03 3.162277660168379612e+02
