# Temperature (K), Pressure (bars)
1.212093665865132152e+03 1.778279410038922901e-05
1.238025416970071774e+03 3.162277660168379530e-05
1.271452451274895793e+03 5.623413251903490700e-05
1.311467344305072629e+03 1.000000000000000048e-04
1.356458769911256923e+03 1.778279410038922698e-04
1.404550967121220310e+03 3.162277660168379394e-04
1.461495440604657233e+03 5.623413251903490971e-04
1.536418399279079949e+03 1.000000000000000021e-03
1.615251477135152527e+03 1.778279410038922752e-03
1.683962564741296092e+03 3.162277660168379394e-03
1.750764519640928938e+03 5.623413251903490971e-03
1.822930818214915689e+03 1.000000000000000021e-02
1.903630322219833033e+03 1.778279410038922925e-02
1.994732857853654878e+03 3.162277660168379134e-02
2.110944136237370003e+03 5.623413251903491145e-02
2.273084814809806176e+03 1.000000000000000056e-01
2.462301440307610392e+03 1.778279410038922925e-01
2.650442849785251383e+03 3.162277660168379412e-01
2.836618804365614778e+03 5.623413251903490728e-01
3.026188083352749800e+03 1.000000000000000000e+00
3.222303663319447423e+03 1.778279410038922759e+00
3.427430596980192604e+03 3.162277660168379523e+00
3.645076103246546154e+03 5.623413251903491172e+00
3.879888857151634056e+03 1.000000000000000000e+01
4.137179713242579965e+03 1.778279410038922848e+01
4.423137747059882713e+03 3.162277660168379256e+01
4.745749255318281030e+03 5.623413251903490817e+01
5.119680636620646510e+03 1.000000000000000000e+02
5.553997639377339510e+03 1.778279410038922776e+02
6.066728529523766156e+03 3.162277660168379612e+02
