# Temperature (K), Pressure (bars)
1.732813112295977135e+03 9.999999999999999547e-07
1.757353924293748150e+03 1.778279410038922901e-06
1.781894736291785648e+03 3.162277660168379191e-06
1.819140021195070631e+03 5.623413251903491208e-06
1.861738800945647654e+03 1.000000000000000082e-05
1.904308715028281767e+03 1.778279410038922901e-05
1.946067014224658578e+03 3.162277660168379530e-05
1.986110607203955624e+03 5.623413251903490700e-05
2.026327051514814229e+03 1.000000000000000048e-04
2.067912354286977461e+03 1.778279410038922698e-04
2.111981513173449457e+03 3.162277660168379394e-04
2.159928079838364283e+03 5.623413251903490971e-04
2.213508389855304813e+03 1.000000000000000021e-03
2.274281275892552458e+03 1.778279410038922752e-03
2.347216856641899540e+03 3.162277660168379394e-03
2.439672396113308878e+03 5.623413251903490971e-03
2.548801705684180433e+03 1.000000000000000021e-02
2.668239876700894001e+03 1.778279410038922925e-02
2.797628428030160649e+03 3.162277660168379134e-02
2.938723066475758969e+03 5.623413251903491145e-02
3.094018249929956255e+03 1.000000000000000056e-01
3.266197084950273620e+03 1.778279410038922925e-01
3.457210820637576035e+03 3.162277660168379412e-01
3.668360143350142152e+03 5.623413251903490728e-01
3.902593542983303450e+03 1.000000000000000000e+00
4.166953842210940820e+03 1.778279410038922759e+00
4.473806194634573330e+03 3.162277660168379523e+00
4.832066687646935861e+03 5.623413251903491172e+00
5.284473656139795821e+03 1.000000000000000000e+01
5.890802482355828033e+03 1.778279410038922848e+01
6.765398223183939990e+03 3.162277660168379256e+01
8.076615154808604530e+03 5.623413251903490817e+01
9.849418441014044220e+03 1.000000000000000000e+02
1.199394454930498250e+04 1.778279410038922776e+02
1.454919807339805084e+04 3.162277660168379612e+02
