# Temperature (K), Pressure (bars)
2.086716929645025630e+03 9.999999999999999547e-07
2.189721063156601303e+03 1.778279410038922901e-06
2.292725196668177432e+03 3.162277660168379191e-06
2.339611966092315470e+03 5.623413251903491208e-06
2.357330155435394772e+03 1.000000000000000082e-05
2.378532186490281219e+03 1.778279410038922901e-05
2.408772793870423811e+03 3.162277660168379530e-05
2.447113124910419629e+03 5.623413251903490700e-05
2.489948757225216468e+03 1.000000000000000048e-04
2.533757482229409561e+03 1.778279410038922698e-04
2.574946541558220815e+03 3.162277660168379394e-04
2.611769009655533864e+03 5.623413251903490971e-04
2.646175411041999268e+03 1.000000000000000021e-03
2.683743135625107243e+03 1.778279410038922752e-03
2.730317927948902252e+03 3.162277660168379394e-03
2.783487361667809637e+03 5.623413251903490971e-03
2.834642657976507053e+03 1.000000000000000021e-02
2.877338130219343839e+03 1.778279410038922925e-02
2.947854407153284228e+03 3.162277660168379134e-02
3.083691938109183866e+03 5.623413251903491145e-02
3.251790778199801935e+03 1.000000000000000056e-01
3.436410375951967580e+03 1.778279410038922925e-01
3.622408659381683719e+03 3.162277660168379412e-01
3.837102419104681758e+03 5.623413251903490728e-01
4.091293219233238233e+03 1.000000000000000000e+00
4.399578468277582942e+03 1.778279410038922759e+00
4.787747332181458660e+03 3.162277660168379523e+00
5.312258270076128611e+03 5.623413251903491172e+00
6.093926875757668313e+03 1.000000000000000000e+01
7.306444290274741434e+03 1.778279410038922848e+01
8.962377337809619348e+03 3.162277660168379256e+01
1.093448265639862257e+04 5.623413251903490817e+01
1.330598819658430875e+04 1.000000000000000000e+02
1.620108377555141669e+04 1.778279410038922776e+02
1.965533218337112339e+04 3.162277660168379612e+02
