# Temperature (K), Pressure (bars)
8.625006054551574834e+02 1.000000000000000048e-04
9.104806994887627525e+02 1.778279410038922698e-04
9.584607946642828438e+02 3.162277660168379394e-04
1.006237549262762627e+03 5.623413251903490971e-04
1.054604755944571480e+03 1.000000000000000021e-03
1.104466687621497385e+03 1.778279410038922752e-03
1.156016363261785727e+03 3.162277660168379394e-03
1.210316326954813803e+03 5.623413251903490971e-03
1.268823405606327469e+03 1.000000000000000021e-02
1.338081885742681379e+03 1.778279410038922925e-02
1.429954771573772859e+03 3.162277660168379134e-02
1.556526248100424482e+03 5.623413251903491145e-02
1.712504208071729408e+03 1.000000000000000056e-01
1.910454034169944634e+03 1.778279410038922925e-01
2.164563885648090945e+03 3.162277660168379412e-01
2.422278139763711806e+03 5.623413251903490728e-01
2.653264492081601475e+03 1.000000000000000000e+00
2.873845694470468970e+03 1.778279410038922759e+00
3.091312537269844142e+03 3.162277660168379523e+00
3.312000191934779650e+03 5.623413251903491172e+00
3.542008620153927041e+03 1.000000000000000000e+01
3.787241593167241263e+03 1.778279410038922848e+01
4.055709148393692885e+03 3.162277660168379256e+01
4.352146122178618498e+03 5.623413251903490817e+01
4.683675413026032402e+03 1.000000000000000000e+02
5.053573155965905244e+03 1.778279410038922776e+02
5.483653319271350483e+03 3.162277660168379612e+02
