# Temperature (K), Pressure (bars)
2.267904265012040923e+03 9.999999999999999547e-07
2.282594082602858180e+03 1.778279410038922901e-06
2.297283900193675436e+03 3.162277660168379191e-06
2.321596059150551355e+03 5.623413251903491208e-06
2.351616134933021840e+03 1.000000000000000082e-05
2.384121646789760234e+03 1.778279410038922901e-05
2.418738140854109133e+03 3.162277660168379530e-05
2.455334873131305358e+03 5.623413251903490700e-05
2.492609016332486590e+03 1.000000000000000048e-04
2.527383252042403910e+03 1.778279410038922698e-04
2.556265266125325979e+03 3.162277660168379394e-04
2.579276132056252209e+03 5.623413251903490971e-04
2.603885889887064423e+03 1.000000000000000021e-03
2.640084679639409842e+03 1.778279410038922752e-03
2.690501790952438569e+03 3.162277660168379394e-03
2.749115235795117314e+03 5.623413251903490971e-03
2.801387060857446158e+03 1.000000000000000021e-02
2.850434799043238854e+03 1.778279410038922925e-02
2.933201767147046212e+03 3.162277660168379134e-02
3.061679820475066663e+03 5.623413251903491145e-02
3.215235642744250526e+03 1.000000000000000056e-01
3.389456406668775799e+03 1.778279410038922925e-01
3.592153340990807010e+03 3.162277660168379412e-01
3.829168387438557147e+03 5.623413251903490728e-01
4.110761979536474428e+03 1.000000000000000000e+00
4.410540097879502355e+03 1.778279410038922759e+00
4.785939068873705764e+03 3.162277660168379523e+00
5.289626505898195319e+03 5.623413251903491172e+00
6.034650223494706552e+03 1.000000000000000000e+01
7.197080444407682080e+03 1.778279410038922848e+01
8.818812192332372433e+03 3.162277660168379256e+01
1.000000000000000000e+04 5.623413251903490817e+01
1.000000000000000000e+04 1.000000000000000000e+02
1.000000000000000000e+04 1.778279410038922776e+02
1.000000000000000000e+04 3.162277660168379612e+02
