# Temperature (K), Pressure (bars)
2.023984144935577660e+03 9.999999999999999547e-07
2.073967853175032815e+03 1.778279410038922901e-06
2.123951561414487514e+03 3.162277660168379191e-06
2.173146953285495329e+03 5.623413251903491208e-06
2.218876942438891092e+03 1.000000000000000082e-05
2.259998122184366821e+03 1.778279410038922901e-05
2.296645452090778690e+03 3.162277660168379530e-05
2.329410629024235732e+03 5.623413251903490700e-05
2.359965173152893385e+03 1.000000000000000048e-04
2.390703108355288805e+03 1.778279410038922698e-04
2.424054671666025570e+03 3.162277660168379394e-04
2.461936283193977943e+03 5.623413251903490971e-04
2.506031394223504321e+03 1.000000000000000021e-03
2.558291098831933596e+03 1.778279410038922752e-03
2.621091846043526402e+03 3.162277660168379394e-03
2.695824726969792209e+03 5.623413251903490971e-03
2.783718091170555454e+03 1.000000000000000021e-02
2.889481117642935715e+03 1.778279410038922925e-02
3.017409439151944298e+03 3.162277660168379134e-02
3.169033794780862536e+03 5.623413251903491145e-02
3.351784495950861128e+03 1.000000000000000056e-01
3.544023738103933738e+03 1.778279410038922925e-01
3.767485977483231181e+03 3.162277660168379412e-01
4.030686172692596301e+03 5.623413251903490728e-01
4.333599455383136046e+03 1.000000000000000000e+00
4.727426479694342561e+03 1.778279410038922759e+00
5.283620414673799132e+03 3.162277660168379523e+00
6.116411681439510176e+03 5.623413251903491172e+00
7.370822050871367537e+03 1.000000000000000000e+01
9.057721682958987003e+03 1.778279410038922848e+01
1.000000000000000000e+04 3.162277660168379256e+01
1.000000000000000000e+04 5.623413251903490817e+01
1.000000000000000000e+04 1.000000000000000000e+02
1.000000000000000000e+04 1.778279410038922776e+02
1.000000000000000000e+04 3.162277660168379612e+02
