# Temperature (K), Pressure (bars)
2.316968564115873505e+03 9.999999999999999547e-07
2.335082362031529101e+03 1.778279410038922901e-06
2.353196159947184697e+03 3.162277660168379191e-06
2.380944066531588305e+03 5.623413251903491208e-06
2.412692149505258385e+03 1.000000000000000082e-05
2.446132393547538413e+03 1.778279410038922901e-05
2.482131741591138507e+03 3.162277660168379530e-05
2.518673844350388663e+03 5.623413251903490700e-05
2.553902548902035960e+03 1.000000000000000048e-04
2.584855425194786221e+03 1.778279410038922698e-04
2.608247678667357377e+03 3.162277660168379394e-04
2.625088823879757001e+03 5.623413251903490971e-04
2.643501050676202340e+03 1.000000000000000021e-03
2.673039903606300413e+03 1.778279410038922752e-03
2.718534248351581027e+03 3.162277660168379394e-03
2.779418951485115031e+03 5.623413251903490971e-03
2.855530190862567451e+03 1.000000000000000021e-02
2.942209602714632638e+03 1.778279410038922925e-02
3.043675800306537894e+03 3.162277660168379134e-02
3.177479106481310282e+03 5.623413251903491145e-02
3.342200320412654492e+03 1.000000000000000056e-01
3.525681050941453577e+03 1.778279410038922925e-01
3.737929462744208649e+03 3.162277660168379412e-01
3.989916554563570116e+03 5.623413251903490728e-01
4.277557150992209245e+03 1.000000000000000000e+00
4.643202574829108016e+03 1.778279410038922759e+00
5.148413600353296715e+03 3.162277660168379523e+00
5.927375005276910997e+03 5.623413251903491172e+00
7.159084028839674829e+03 1.000000000000000000e+01
8.809324120638770182e+03 1.778279410038922848e+01
1.000000000000000000e+04 3.162277660168379256e+01
1.000000000000000000e+04 5.623413251903490817e+01
1.000000000000000000e+04 1.000000000000000000e+02
1.000000000000000000e+04 1.778279410038922776e+02
1.000000000000000000e+04 3.162277660168379612e+02
