# Temperature (K), Pressure (bars)
9.476920676385462912e+02 3.162277660168379394e-04
9.800081585780455953e+02 5.623413251903490971e-04
1.012324248903035368e+03 1.000000000000000021e-03
1.037921137232061483e+03 1.778279410038922752e-03
1.058159518613633736e+03 3.162277660168379394e-03
1.077031952984493273e+03 5.623413251903490971e-03
1.097116998967414702e+03 1.000000000000000021e-02
1.121012447620487137e+03 1.778279410038922925e-02
1.151638922665759992e+03 3.162277660168379134e-02
1.191356825309855822e+03 5.623413251903491145e-02
1.240852751713012822e+03 1.000000000000000056e-01
1.303363028529515987e+03 1.778279410038922925e-01
1.383039849607418319e+03 3.162277660168379412e-01
1.486857726025717056e+03 5.623413251903490728e-01
1.618683968067126898e+03 1.000000000000000000e+00
1.799748139891226401e+03 1.778279410038922759e+00
2.053773807171590761e+03 3.162277660168379523e+00
2.345356644438541935e+03 5.623413251903491172e+00
2.637642762748342193e+03 1.000000000000000000e+01
2.927711789155961014e+03 1.778279410038922848e+01
3.218407541546717766e+03 3.162277660168379256e+01
3.514175403174447638e+03 5.623413251903490817e+01
3.822991374167280810e+03 1.000000000000000000e+02
4.149971142544512077e+03 1.778279410038922776e+02
4.509553551934841380e+03 3.162277660168379612e+02
