# Temperature (K), Pressure (bars)
9.806164065226687399e+02 3.162277660168379394e-04
1.028250136423986987e+03 5.623413251903490971e-04
1.075883866840598557e+03 1.000000000000000021e-03
1.121232383756258969e+03 1.778279410038922752e-03
1.165051165823111887e+03 3.162277660168379394e-03
1.210742362570929117e+03 5.623413251903490971e-03
1.259902042061386055e+03 1.000000000000000021e-02
1.314320608454205285e+03 1.778279410038922925e-02
1.379325177826691061e+03 3.162277660168379134e-02
1.463915887191138154e+03 5.623413251903491145e-02
1.575341457962531194e+03 1.000000000000000056e-01
1.717759901378889253e+03 1.778279410038922925e-01
1.878174740052431389e+03 3.162277660168379412e-01
2.060383235206064455e+03 5.623413251903490728e-01
2.291273939151770264e+03 1.000000000000000000e+00
2.546409149905145568e+03 1.778279410038922759e+00
2.793455485091873925e+03 3.162277660168379523e+00
3.035175181196852463e+03 5.623413251903491172e+00
3.277721185894124119e+03 1.000000000000000000e+01
3.527644986870976936e+03 1.778279410038922848e+01
3.793136466326102436e+03 3.162277660168379256e+01
4.080048303032551757e+03 5.623413251903490817e+01
4.395253377357199497e+03 1.000000000000000000e+02
4.741827687845553555e+03 1.778279410038922776e+02
5.138088919017526678e+03 3.162277660168379612e+02
