# Temperature (K), Pressure (bars)
2.286341659452878048e+03 9.999999999999999547e-07
2.306797998218683460e+03 1.778279410038922901e-06
2.327254336984489328e+03 3.162277660168379191e-06
2.356133823886892060e+03 5.623413251903491208e-06
2.388578022065313235e+03 1.000000000000000082e-05
2.422644053586586779e+03 1.778279410038922901e-05
2.459653212112165875e+03 3.162277660168379530e-05
2.497844714151022345e+03 5.623413251903490700e-05
2.535034063080047417e+03 1.000000000000000048e-04
2.567777458020368158e+03 1.778279410038922698e-04
2.592070027197055424e+03 3.162277660168379394e-04
2.609219094931759628e+03 5.623413251903490971e-04
2.628709474122907977e+03 1.000000000000000021e-03
2.660702644762347518e+03 1.778279410038922752e-03
2.709402904026274882e+03 3.162277660168379394e-03
2.772254205182960504e+03 5.623413251903490971e-03
2.846264052075900963e+03 1.000000000000000021e-02
2.922970074219709659e+03 1.778279410038922925e-02
3.014025845528537047e+03 3.162277660168379134e-02
3.147789994539254167e+03 5.623413251903491145e-02
3.314808321957601038e+03 1.000000000000000056e-01
3.498530158820539782e+03 1.778279410038922925e-01
3.706505610098817215e+03 3.162277660168379412e-01
3.950962515798404183e+03 5.623413251903490728e-01
4.235749628869300068e+03 1.000000000000000000e+00
4.581953883744602535e+03 1.778279410038922759e+00
5.047162832992715266e+03 3.162277660168379523e+00
5.742546698438193744e+03 5.623413251903491172e+00
6.852500369291755305e+03 1.000000000000000000e+01
8.418653963999837288e+03 1.778279410038922848e+01
1.000000000000000000e+04 3.162277660168379256e+01
1.000000000000000000e+04 5.623413251903490817e+01
1.000000000000000000e+04 1.000000000000000000e+02
1.000000000000000000e+04 1.778279410038922776e+02
1.000000000000000000e+04 3.162277660168379612e+02
