# Temperature (K), Pressure (bars)
1.000355196191097093e+03 1.000000000000000082e-05
1.055965339325202876e+03 1.778279410038922901e-05
1.111575493498737387e+03 3.162277660168379530e-05
1.164743750078455378e+03 5.623413251903490700e-05
1.216151657428551061e+03 1.000000000000000048e-04
1.266289571502636136e+03 1.778279410038922698e-04
1.317714810565205880e+03 3.162277660168379394e-04
1.377230090446191298e+03 5.623413251903490971e-04
1.451870774070047446e+03 1.000000000000000021e-03
1.541215531313772090e+03 1.778279410038922752e-03
1.635708081367094110e+03 3.162277660168379394e-03
1.734750147557181208e+03 5.623413251903490971e-03
1.851803343369968388e+03 1.000000000000000021e-02
1.973242338504940562e+03 1.778279410038922925e-02
2.102494798701505715e+03 3.162277660168379134e-02
2.270458066100842643e+03 5.623413251903491145e-02
2.454352486573069655e+03 1.000000000000000056e-01
2.630224787846892468e+03 1.778279410038922925e-01
2.805894158831251843e+03 3.162277660168379412e-01
2.985471304433309342e+03 5.623413251903490728e-01
3.171700666769582313e+03 1.000000000000000000e+00
3.366669759516954400e+03 1.778279410038922759e+00
3.573078818536879680e+03 3.162277660168379523e+00
3.794940613578973625e+03 5.623413251903491172e+00
4.037209397047160564e+03 1.000000000000000000e+01
4.305640333805633418e+03 1.778279410038922848e+01
4.607233841209692400e+03 3.162277660168379256e+01
4.951299273607757641e+03 5.623413251903490817e+01
5.354555245901201488e+03 1.000000000000000000e+02
5.829251284602077249e+03 1.778279410038922776e+02
6.398059141901751900e+03 3.162277660168379612e+02
