# Temperature (K), Pressure (bars)
9.919455989185861426e+02 3.162277660168379394e-03
1.038135590052421321e+03 5.623413251903490971e-03
1.084325583251100170e+03 1.000000000000000021e-02
1.130438763808522026e+03 1.778279410038922925e-02
1.176601080348933010e+03 3.162277660168379134e-02
1.223432839947767434e+03 5.623413251903491145e-02
1.272825240579737510e+03 1.000000000000000056e-01
1.327329332336575362e+03 1.778279410038922925e-01
1.392620505834605183e+03 3.162277660168379412e-01
1.478879210287854448e+03 5.623413251903490728e-01
1.593162493449597605e+03 1.000000000000000000e+00
1.739668254421278789e+03 1.778279410038922759e+00
1.917389323011704619e+03 3.162277660168379523e+00
2.148164082201922156e+03 5.623413251903491172e+00
2.444189972924953508e+03 1.000000000000000000e+01
2.755896069913726933e+03 1.778279410038922848e+01
3.058234752864603706e+03 3.162277660168379256e+01
3.362080765309265189e+03 5.623413251903490817e+01
3.674672582022319148e+03 1.000000000000000000e+02
4.001113332030522997e+03 1.778279410038922776e+02
4.356141363936465495e+03 3.162277660168379612e+02
