# Temperature (K), Pressure (bars)
1.286579816926934200e+03 9.999999999999999547e-07
1.331209220891368659e+03 1.778279410038922901e-06
1.375838624855803118e+03 3.162277660168379191e-06
1.425801441958606119e+03 5.623413251903491208e-06
1.481654219150319477e+03 1.000000000000000082e-05
1.545877606344561173e+03 1.778279410038922901e-05
1.617108153954153295e+03 3.162277660168379530e-05
1.690557522846592747e+03 5.623413251903490700e-05
1.766515841903043111e+03 1.000000000000000048e-04
1.848590148694177060e+03 1.778279410038922698e-04
1.938593882240574658e+03 3.162277660168379394e-04
2.041371557322557464e+03 5.623413251903490971e-04
2.163157629349441322e+03 1.000000000000000021e-03
2.298677510575496854e+03 1.778279410038922752e-03
2.439271069986084512e+03 3.162277660168379394e-03
2.583537863925564579e+03 5.623413251903490971e-03
2.733362137883747437e+03 1.000000000000000021e-02
2.891777557965705000e+03 1.778279410038922925e-02
3.063287589619455503e+03 3.162277660168379134e-02
3.259787368713522937e+03 5.623413251903491145e-02
3.445244516539883989e+03 1.000000000000000056e-01
3.659448896443504054e+03 1.778279410038922925e-01
3.912667548966872346e+03 3.162277660168379412e-01
4.210312904300497394e+03 5.623413251903490728e-01
4.609857473456253501e+03 1.000000000000000000e+00
5.215775911449832165e+03 1.778279410038922759e+00
6.191001008193531561e+03 3.162277660168379523e+00
7.624057510250867381e+03 5.623413251903491172e+00
9.329456908327591009e+03 1.000000000000000000e+01
1.000000000000000000e+04 1.778279410038922848e+01
1.000000000000000000e+04 3.162277660168379256e+01
1.000000000000000000e+04 5.623413251903490817e+01
1.000000000000000000e+04 1.000000000000000000e+02
1.000000000000000000e+04 1.778279410038922776e+02
1.000000000000000000e+04 3.162277660168379612e+02
