# Temperature (K), Pressure (bars)
8.523920170701394454e+02 1.000000000000000021e-03
8.945652547557333492e+02 1.778279410038922752e-03
9.367384940384016545e+02 3.162277660168379394e-03
9.788931171129256654e+02 5.623413251903490971e-03
1.022016686086390791e+03 1.000000000000000021e-02
1.065829677357904757e+03 1.778279410038922925e-02
1.110502120748779589e+03 3.162277660168379134e-02
1.157857350698651317e+03 5.623413251903491145e-02
1.210942644126774439e+03 1.000000000000000056e-01
1.274308707660225764e+03 1.778279410038922925e-01
1.352593829035258295e+03 3.162277660168379412e-01
1.456250835999858282e+03 5.623413251903490728e-01
1.605338976686577325e+03 1.000000000000000000e+00
1.800035997175081548e+03 1.778279410038922759e+00
2.039488608329033241e+03 3.162277660168379523e+00
2.326572325663426454e+03 5.623413251903491172e+00
2.626608702956464640e+03 1.000000000000000000e+01
2.917631718222431573e+03 1.778279410038922848e+01
3.209103449043169348e+03 3.162277660168379256e+01
3.505405989975674402e+03 5.623413251903490817e+01
3.814452272244950109e+03 1.000000000000000000e+02
4.141412660369940568e+03 1.778279410038922776e+02
4.500723195966696039e+03 3.162277660168379612e+02
