# Temperature (K), Pressure (bars)
1.164471801329501204e+03 3.162277660168379530e-05
1.219531935890667455e+03 5.623413251903490700e-05
1.274592084666860501e+03 1.000000000000000048e-04
1.412422824342673721e+03 1.778279410038922698e-04
1.537980191833001072e+03 3.162277660168379394e-04
1.603528669302362459e+03 5.623413251903490971e-04
1.652917388794307726e+03 1.000000000000000021e-03
1.699597404502001837e+03 1.778279410038922752e-03
1.741506938644862203e+03 3.162277660168379394e-03
1.785318989006415677e+03 5.623413251903490971e-03
1.826123070751884597e+03 1.000000000000000021e-02
1.857837952130726762e+03 1.778279410038922925e-02
1.886585960514394174e+03 3.162277660168379134e-02
1.919482982558459526e+03 5.623413251903491145e-02
1.959521432210825424e+03 1.000000000000000056e-01
2.014295728907464081e+03 1.778279410038922925e-01
2.084126328559290414e+03 3.162277660168379412e-01
2.187312363658082177e+03 5.623413251903490728e-01
2.372500535061181381e+03 1.000000000000000000e+00
2.619115977894472962e+03 1.778279410038922759e+00
2.865386713299715666e+03 3.162277660168379523e+00
3.102324135558714261e+03 5.623413251903491172e+00
3.342031976554782432e+03 1.000000000000000000e+01
3.590857461779708501e+03 1.778279410038922848e+01
3.856487982103270497e+03 3.162277660168379256e+01
4.145118907352040878e+03 5.623413251903490817e+01
4.463585384380275173e+03 1.000000000000000000e+02
4.815127151879938538e+03 1.778279410038922776e+02
5.218544691309364680e+03 3.162277660168379612e+02
