# Temperature (K), Pressure (bars)
9.487925251613492037e+02 1.000000000000000021e-03
9.924580275394165483e+02 1.778279410038922752e-03
1.036123531486322690e+03 3.162277660168379394e-03
1.079473454146479298e+03 5.623413251903490971e-03
1.123789335678051884e+03 1.000000000000000021e-02
1.169454645479051351e+03 1.778279410038922925e-02
1.217118052087196247e+03 3.162277660168379134e-02
1.267449311045998456e+03 5.623413251903491145e-02
1.322880988126063585e+03 1.000000000000000056e-01
1.391234569228085093e+03 1.778279410038922925e-01
1.480710824755592057e+03 3.162277660168379412e-01
1.597856975042604518e+03 5.623413251903490728e-01
1.745724453438210503e+03 1.000000000000000000e+00
1.928912459422765551e+03 1.778279410038922759e+00
2.169717988650917050e+03 3.162277660168379523e+00
2.461362557959441801e+03 5.623413251903491172e+00
2.756270510664427547e+03 1.000000000000000000e+01
3.038863321244329654e+03 1.778279410038922848e+01
3.322798271804108026e+03 3.162277660168379256e+01
3.614617150618412779e+03 5.623413251903490817e+01
3.922351413054399472e+03 1.000000000000000000e+02
4.250780555806135453e+03 1.778279410038922776e+02
4.614479527018686895e+03 3.162277660168379612e+02
