# Temperature (K), Pressure (bars)
8.231099646174052396e+02 3.162277660168379394e-04
8.696991255154252940e+02 5.623413251903490971e-04
9.162882875425866587e+02 1.000000000000000021e-03
9.616322548077796455e+02 1.778279410038922752e-03
1.007132727194642939e+03 3.162277660168379394e-03
1.053652837284920679e+03 5.623413251903490971e-03
1.102321281250183347e+03 1.000000000000000021e-02
1.156474722494147954e+03 1.778279410038922925e-02
1.220213363853992860e+03 3.162277660168379134e-02
1.301156037113441926e+03 5.623413251903491145e-02
1.417896263046479135e+03 1.000000000000000056e-01
1.598164616646121203e+03 1.778279410038922925e-01
1.841537753859317718e+03 3.162277660168379412e-01
2.108662671121711355e+03 5.623413251903490728e-01
2.371451006832967323e+03 1.000000000000000000e+00
2.623255960942229194e+03 1.778279410038922759e+00
2.863703832822621280e+03 3.162277660168379523e+00
3.098811605975964994e+03 5.623413251903491172e+00
3.336145383623080761e+03 1.000000000000000000e+01
3.582952198923154356e+03 1.778279410038922848e+01
3.847930790546448407e+03 3.162277660168379256e+01
4.135919200402350725e+03 5.623413251903490817e+01
4.453593982517729273e+03 1.000000000000000000e+02
4.803883498128666361e+03 1.778279410038922776e+02
5.206018787977871398e+03 3.162277660168379612e+02
