# Temperature (K), Pressure (bars)
8.937332905688356277e+02 3.162277660168379530e-05
9.430674761608387371e+02 5.623413251903490700e-05
9.924016620749180220e+02 1.000000000000000048e-04
1.041391098089952948e+03 1.778279410038922698e-04
1.088761545865894959e+03 3.162277660168379394e-04
1.130940823708952621e+03 5.623413251903490971e-04
1.166572788195352814e+03 1.000000000000000021e-03
1.198634283171171091e+03 1.778279410038922752e-03
1.229971629909010289e+03 3.162277660168379394e-03
1.260962657479168456e+03 5.623413251903490971e-03
1.291281111913557652e+03 1.000000000000000021e-02
1.321691551507778968e+03 1.778279410038922925e-02
1.351717914344742667e+03 3.162277660168379134e-02
1.393440965686598702e+03 5.623413251903491145e-02
1.466156538818067702e+03 1.000000000000000056e-01
1.564921747498309060e+03 1.778279410038922925e-01
1.692166263746631785e+03 3.162277660168379412e-01
1.840194425469324869e+03 5.623413251903490728e-01
2.021090304256530317e+03 1.000000000000000000e+00
2.275997957869946731e+03 1.778279410038922759e+00
2.558715284160722149e+03 3.162277660168379523e+00
2.823442399160679088e+03 5.623413251903491172e+00
3.081771287951895374e+03 1.000000000000000000e+01
3.340751992499740027e+03 1.778279410038922848e+01
3.609645341416446172e+03 3.162277660168379256e+01
3.895061002087307770e+03 5.623413251903490817e+01
4.204094608474115375e+03 1.000000000000000000e+02
4.540143227324686450e+03 1.778279410038922776e+02
4.919940308153200931e+03 3.162277660168379612e+02
