# Temperature (K), Pressure (bars)
1.870551655841746651e+03 9.999999999999999547e-07
1.892159550668716747e+03 1.778279410038922901e-06
1.913767445496991513e+03 3.162277660168379191e-06
1.943910381466607760e+03 5.623413251903491208e-06
1.982327310136394090e+03 1.000000000000000082e-05
2.028418763279782524e+03 1.778279410038922901e-05
2.077683466960148053e+03 3.162277660168379530e-05
2.123958564496351755e+03 5.623413251903490700e-05
2.165369067319689748e+03 1.000000000000000048e-04
2.201548253463399305e+03 1.778279410038922698e-04
2.233488543654940258e+03 3.162277660168379394e-04
2.263330001347956113e+03 5.623413251903490971e-04
2.293207666505803900e+03 1.000000000000000021e-03
2.324922920801775490e+03 1.778279410038922752e-03
2.360667123518841436e+03 3.162277660168379394e-03
2.401917023576063002e+03 5.623413251903490971e-03
2.452445520137624953e+03 1.000000000000000021e-02
2.512361205641049310e+03 1.778279410038922925e-02
2.593274654786483097e+03 3.162277660168379134e-02
2.712239390721544623e+03 5.623413251903491145e-02
2.852889665663414689e+03 1.000000000000000056e-01
3.001897855938214889e+03 1.778279410038922925e-01
3.165351515056203425e+03 3.162277660168379412e-01
3.344960275908004405e+03 5.623413251903490728e-01
3.541187002873902202e+03 1.000000000000000000e+00
3.754771356100046432e+03 1.778279410038922759e+00
3.988617933731496123e+03 3.162277660168379523e+00
4.248328510828572689e+03 5.623413251903491172e+00
4.541994279318014378e+03 1.000000000000000000e+01
4.880755315099320796e+03 1.778279410038922848e+01
5.281712084412556578e+03 3.162277660168379256e+01
5.767424632361056865e+03 5.623413251903490817e+01
6.373865779896697859e+03 1.000000000000000000e+02
7.159775589944514650e+03 1.778279410038922776e+02
8.226038186201089047e+03 3.162277660168379612e+02
