# Temperature (K), Pressure (bars)
8.495302563101779469e+02 9.999999999999999547e-07
8.718428876444779689e+02 1.778279410038922901e-06
8.941555190034212046e+02 3.162277660168379191e-06
9.209348620254882007e+02 5.623413251903491208e-06
9.517520920562790252e+02 1.000000000000000082e-05
9.867805058694408444e+02 1.778279410038922901e-05
1.026416177043884318e+03 3.162277660168379530e-05
1.069724901297201313e+03 5.623413251903490700e-05
1.116315677161944222e+03 1.000000000000000048e-04
1.166076308056733069e+03 1.778279410038922698e-04
1.219344025722362403e+03 3.162277660168379394e-04
1.276260637739629829e+03 5.623413251903490971e-04
1.338633445316594134e+03 1.000000000000000021e-03
1.408998435526409139e+03 1.778279410038922752e-03
1.492309824554410170e+03 3.162277660168379394e-03
1.592007264420291904e+03 5.623413251903490971e-03
1.724251182942009109e+03 1.000000000000000021e-02
1.911225087166474168e+03 1.778279410038922925e-02
2.128209350737405202e+03 3.162277660168379134e-02
2.335458224548706312e+03 5.623413251903491145e-02
2.526538037213841562e+03 1.000000000000000056e-01
2.708443564275648441e+03 1.778279410038922925e-01
2.887108193003206452e+03 3.162277660168379412e-01
3.066754065702080879e+03 5.623413251903490728e-01
3.250938665614068213e+03 1.000000000000000000e+00
3.443617778717684814e+03 1.778279410038922759e+00
3.649213339297383300e+03 3.162277660168379523e+00
3.872410234681360180e+03 5.623413251903491172e+00
4.118290649066422702e+03 1.000000000000000000e+01
4.392823299022664287e+03 1.778279410038922848e+01
4.703607240022834958e+03 3.162277660168379256e+01
5.061021237456210656e+03 5.623413251903490817e+01
5.483130602259670923e+03 1.000000000000000000e+02
5.985031059164111866e+03 1.778279410038922776e+02
6.594539942540493030e+03 3.162277660168379612e+02
