# Temperature (K), Pressure (bars)
1.771763298887655537e+03 9.999999999999999547e-07
1.794461788493893209e+03 1.778279410038922901e-06
1.817160278100130654e+03 3.162277660168379191e-06
1.843191856804868394e+03 5.623413251903491208e-06
1.874045937408309555e+03 1.000000000000000082e-05
1.912150721567312530e+03 1.778279410038922901e-05
1.957514059545767168e+03 3.162277660168379530e-05
2.009385503843728429e+03 5.623413251903490700e-05
2.067026041505853300e+03 1.000000000000000048e-04
2.128744164468949293e+03 1.778279410038922698e-04
2.194168483000005835e+03 3.162277660168379394e-04
2.264168661535944466e+03 5.623413251903490971e-04
2.342722762046295884e+03 1.000000000000000021e-03
2.434394376990369437e+03 1.778279410038922752e-03
2.538055733879913532e+03 3.162277660168379394e-03
2.651401869924968196e+03 5.623413251903490971e-03
2.774919359747460476e+03 1.000000000000000021e-02
2.909962745498099139e+03 1.778279410038922925e-02
3.058735624667687716e+03 3.162277660168379134e-02
3.224901898756527316e+03 5.623413251903491145e-02
3.416201172518508429e+03 1.000000000000000056e-01
3.618256894944153828e+03 1.778279410038922925e-01
3.858146910748899245e+03 3.162277660168379412e-01
4.129530236258864534e+03 5.623413251903490728e-01
4.476558306387447374e+03 1.000000000000000000e+00
4.963498812578292018e+03 1.778279410038922759e+00
5.723896363603191276e+03 3.162277660168379523e+00
6.880005748293671786e+03 5.623413251903491172e+00
8.477781892914039418e+03 1.000000000000000000e+01
1.000000000000000000e+04 1.778279410038922848e+01
1.000000000000000000e+04 3.162277660168379256e+01
1.000000000000000000e+04 5.623413251903490817e+01
1.000000000000000000e+04 1.000000000000000000e+02
1.000000000000000000e+04 1.778279410038922776e+02
1.000000000000000000e+04 3.162277660168379612e+02
