# Temperature (K), Pressure (bars)
2.133820616982024148e+03 9.999999999999999547e-07
2.145325600536588354e+03 1.778279410038922901e-06
2.156830584091153014e+03 3.162277660168379191e-06
2.181481298563159271e+03 5.623413251903491208e-06
2.212728136684646870e+03 1.000000000000000082e-05
2.246708549813310128e+03 1.778279410038922901e-05
2.285189907514505194e+03 3.162277660168379530e-05
2.328315616499754469e+03 5.623413251903490700e-05
2.374394824710936973e+03 1.000000000000000048e-04
2.420755010235615828e+03 1.778279410038922698e-04
2.465694102834726436e+03 3.162277660168379394e-04
2.507424539758950232e+03 5.623413251903490971e-04
2.544992481245073577e+03 1.000000000000000021e-03
2.578996165402839779e+03 1.778279410038922752e-03
2.611950624655301908e+03 3.162277660168379394e-03
2.647113602765035921e+03 5.623413251903490971e-03
2.690149904064981911e+03 1.000000000000000021e-02
2.741194543879780667e+03 1.778279410038922925e-02
2.807121624449966021e+03 3.162277660168379134e-02
2.908671011121299216e+03 5.623413251903491145e-02
3.043092673261323398e+03 1.000000000000000056e-01
3.197050276769590710e+03 1.778279410038922925e-01
3.371169180715007769e+03 3.162277660168379412e-01
3.567641234040645486e+03 5.623413251903490728e-01
3.787571293680837243e+03 1.000000000000000000e+00
4.033511340168739025e+03 1.778279410038922759e+00
4.312127024569093919e+03 3.162277660168379523e+00
4.635536145404273157e+03 5.623413251903491172e+00
5.014949130889162006e+03 1.000000000000000000e+01
5.490318591722893871e+03 1.778279410038922848e+01
6.118315904927560950e+03 3.162277660168379256e+01
7.006111497483907442e+03 5.623413251903490817e+01
8.308923434601289046e+03 1.000000000000000000e+02
1.000000000000000000e+04 1.778279410038922776e+02
1.000000000000000000e+04 3.162277660168379612e+02
