# Temperature (K), Pressure (bars)
1.086836603030498281e+03 5.623413251903490971e-04
1.127774558323523479e+03 1.000000000000000021e-03
1.168712512650368353e+03 1.778279410038922752e-03
1.207449426689855272e+03 3.162277660168379394e-03
1.242767922021152572e+03 5.623413251903490971e-03
1.273196690583196187e+03 1.000000000000000021e-02
1.300739134172431022e+03 1.778279410038922925e-02
1.331508247553966385e+03 3.162277660168379134e-02
1.374400521710823796e+03 5.623413251903491145e-02
1.435357082425495037e+03 1.000000000000000056e-01
1.507738943512585138e+03 1.778279410038922925e-01
1.596113970668757474e+03 3.162277660168379412e-01
1.706357137077146263e+03 5.623413251903490728e-01
1.827250810761307548e+03 1.000000000000000000e+00
1.948298777707930412e+03 1.778279410038922759e+00
2.111090988012934758e+03 3.162277660168379523e+00
2.368442182809835685e+03 5.623413251903491172e+00
2.667641177247582164e+03 1.000000000000000000e+01
2.956418994983329412e+03 1.778279410038922848e+01
3.245513749744292454e+03 3.162277660168379256e+01
3.540299058765002428e+03 5.623413251903490817e+01
3.848851589118281936e+03 1.000000000000000000e+02
4.176375643088083962e+03 1.778279410038922776e+02
4.537053660506315282e+03 3.162277660168379612e+02
