# Temperature (K), Pressure (bars)
1.639109589425727563e+03 9.999999999999999547e-07
1.664609389407170056e+03 1.778279410038922901e-06
1.690109189388611640e+03 3.162277660168379191e-06
1.723096373842515277e+03 5.623413251903491208e-06
1.763512376176167209e+03 1.000000000000000082e-05
1.811877514763431691e+03 1.778279410038922901e-05
1.867259643020047861e+03 3.162277660168379530e-05
1.928234864121470537e+03 5.623413251903490700e-05
1.993812208428108988e+03 1.000000000000000048e-04
2.063519971358195562e+03 1.778279410038922698e-04
2.137603876468132057e+03 3.162277660168379394e-04
2.218887751787049183e+03 5.623413251903490971e-04
2.312671812592372589e+03 1.000000000000000021e-03
2.418548136783513200e+03 1.778279410038922752e-03
2.533215437921253397e+03 3.162277660168379394e-03
2.656266372417440834e+03 5.623413251903490971e-03
2.788792965985381215e+03 1.000000000000000021e-02
2.932603068842615357e+03 1.778279410038922925e-02
3.090636544396950740e+03 3.162277660168379134e-02
3.268041116044404134e+03 5.623413251903491145e-02
3.475415980486278841e+03 1.000000000000000056e-01
3.694233473558217611e+03 1.778279410038922925e-01
3.952983911612682277e+03 3.162277660168379412e-01
4.266729668739314548e+03 5.623413251903490728e-01
4.701262987720619094e+03 1.000000000000000000e+00
5.383540397127429969e+03 1.778279410038922759e+00
6.441537574759570816e+03 3.162277660168379523e+00
7.942591601172038281e+03 5.623413251903491172e+00
9.658408825903556135e+03 1.000000000000000000e+01
1.000000000000000000e+04 1.778279410038922848e+01
1.000000000000000000e+04 3.162277660168379256e+01
1.000000000000000000e+04 5.623413251903490817e+01
1.000000000000000000e+04 1.000000000000000000e+02
1.000000000000000000e+04 1.778279410038922776e+02
1.000000000000000000e+04 3.162277660168379612e+02
