# Temperature (K), Pressure (bars)
1.144124097205207818e+03 5.623413251903490700e-05
1.179528938940397893e+03 1.000000000000000048e-04
1.214933783424513194e+03 1.778279410038922698e-04
1.254158230670235980e+03 3.162277660168379394e-04
1.298873872775756126e+03 5.623413251903490971e-04
1.348677437274321164e+03 1.000000000000000021e-03
1.404258406166380837e+03 1.778279410038922752e-03
1.466833059088038226e+03 3.162277660168379394e-03
1.532697011040400639e+03 5.623413251903490971e-03
1.606404914202317968e+03 1.000000000000000021e-02
1.699841829862792565e+03 1.778279410038922925e-02
1.799520539625941410e+03 3.162277660168379134e-02
1.899423090565573148e+03 5.623413251903491145e-02
2.010052684764689729e+03 1.000000000000000056e-01
2.157959653924784106e+03 1.778279410038922925e-01
2.365516717184189474e+03 3.162277660168379412e-01
2.588040214573468347e+03 5.623413251903490728e-01
2.795123681591282548e+03 1.000000000000000000e+00
3.000514895825503572e+03 1.778279410038922759e+00
3.210235650844654174e+03 3.162277660168379523e+00
3.428366675577037768e+03 5.623413251903491172e+00
3.659054361037617127e+03 1.000000000000000000e+01
3.907351157146025798e+03 1.778279410038922848e+01
4.180844693380465287e+03 3.162277660168379256e+01
4.485205359626757854e+03 5.623413251903490817e+01
4.828168036314707933e+03 1.000000000000000000e+02
5.213677321942147501e+03 1.778279410038922776e+02
5.665378657148949969e+03 3.162277660168379612e+02
