# Temperature (K), Pressure (bars)
9.135523017242112473e+02 1.000000000000000048e-04
9.709370429298204499e+02 1.778279410038922698e-04
1.028321784030444178e+03 3.162277660168379394e-04
1.084005173021130531e+03 5.623413251903490971e-04
1.140845320532445612e+03 1.000000000000000021e-03
1.195894728205438923e+03 1.778279410038922752e-03
1.240945284075250811e+03 3.162277660168379394e-03
1.277469268306826962e+03 5.623413251903490971e-03
1.312571421528123665e+03 1.000000000000000021e-02
1.350027808813699266e+03 1.778279410038922925e-02
1.393730528343402057e+03 3.162277660168379134e-02
1.442624661477224663e+03 5.623413251903491145e-02
1.496336088730595065e+03 1.000000000000000056e-01
1.591576318708901454e+03 1.778279410038922925e-01
1.751266234848389331e+03 3.162277660168379412e-01
1.966676099124895018e+03 5.623413251903490728e-01
2.233885151203053283e+03 1.000000000000000000e+00
2.508732028118010476e+03 1.778279410038922759e+00
2.762405706784110407e+03 3.162277660168379523e+00
3.007756662933696589e+03 5.623413251903491172e+00
3.251899140257408817e+03 1.000000000000000000e+01
3.502308074484387816e+03 1.778279410038922848e+01
3.767879817053861188e+03 3.162277660168379256e+01
4.054305642805781645e+03 5.623413251903490817e+01
4.368339581579463811e+03 1.000000000000000000e+02
4.712998847297083557e+03 1.778279410038922776e+02
5.106368300818253374e+03 3.162277660168379612e+02
