# Temperature (K), Pressure (bars)
2.339549629138471118e+03 9.999999999999999547e-07
2.356850845623822352e+03 1.778279410038922901e-06
2.374152062109174040e+03 3.162277660168379191e-06
2.402615819534708407e+03 5.623413251903491208e-06
2.438493085219932709e+03 1.000000000000000082e-05
2.478036713331131523e+03 1.778279410038922901e-05
2.520807135413565902e+03 3.162277660168379530e-05
2.566174365566870620e+03 5.623413251903490700e-05
2.613856264934896444e+03 1.000000000000000048e-04
2.662092366393281736e+03 1.778279410038922698e-04
2.708389747987383089e+03 3.162277660168379394e-04
2.750524244531551176e+03 5.623413251903490971e-04
2.787264328010448480e+03 1.000000000000000021e-03
2.820014182788864673e+03 1.778279410038922752e-03
2.854026065917638334e+03 3.162277660168379394e-03
2.896245594907579289e+03 5.623413251903490971e-03
2.952479308280034275e+03 1.000000000000000021e-02
3.024678410998471008e+03 1.778279410038922925e-02
3.113953007043180605e+03 3.162277660168379134e-02
3.232679445655460768e+03 5.623413251903491145e-02
3.392604622108221520e+03 1.000000000000000056e-01
3.587457732357373061e+03 1.778279410038922925e-01
3.822640845636537051e+03 3.162277660168379412e-01
4.091249402178010314e+03 5.623413251903490728e-01
4.422073644659592901e+03 1.000000000000000000e+00
4.872931724603964540e+03 1.778279410038922759e+00
5.559774997716597682e+03 3.162277660168379523e+00
6.664960357912819745e+03 5.623413251903491172e+00
8.212963859192501332e+03 1.000000000000000000e+01
9.996780162031634973e+03 1.778279410038922848e+01
1.000000000000000000e+04 3.162277660168379256e+01
1.000000000000000000e+04 5.623413251903490817e+01
1.000000000000000000e+04 1.000000000000000000e+02
1.000000000000000000e+04 1.778279410038922776e+02
1.000000000000000000e+04 3.162277660168379612e+02
