# Temperature (K), Pressure (bars)
2.171427354085536535e+03 9.999999999999999547e-07
2.191899626254825762e+03 1.778279410038922901e-06
2.212371898424114988e+03 3.162277660168379191e-06
2.235246540124961939e+03 5.623413251903491208e-06
2.258637779381219843e+03 1.000000000000000082e-05
2.281800741575868415e+03 1.778279410038922901e-05
2.305407198722602516e+03 3.162277660168379530e-05
2.329191345303230719e+03 5.623413251903490700e-05
2.352547105334220760e+03 1.000000000000000048e-04
2.374939948385186653e+03 1.778279410038922698e-04
2.396349806987702777e+03 3.162277660168379394e-04
2.417942330007052988e+03 5.623413251903490971e-04
2.441923504016860079e+03 1.000000000000000021e-03
2.470380307635946338e+03 1.778279410038922752e-03
2.505105828235050922e+03 3.162277660168379394e-03
2.547457235018216124e+03 5.623413251903490971e-03
2.599127232201846255e+03 1.000000000000000021e-02
2.660823209385597693e+03 1.778279410038922925e-02
2.746497129321730881e+03 3.162277660168379134e-02
2.868552174433250912e+03 5.623413251903491145e-02
3.010529046702726191e+03 1.000000000000000056e-01
3.163519310061312353e+03 1.778279410038922925e-01
3.334566053722409379e+03 3.162277660168379412e-01
3.526157633433084357e+03 5.623413251903490728e-01
3.739644970910273969e+03 1.000000000000000000e+00
3.977104274780550440e+03 1.778279410038922759e+00
4.243923289168949850e+03 3.162277660168379523e+00
4.549947482737014980e+03 5.623413251903491172e+00
4.904556674335889511e+03 1.000000000000000000e+01
5.339127418657056296e+03 1.778279410038922848e+01
5.894985000473283435e+03 3.162277660168379256e+01
6.649034672382710596e+03 5.623413251903490817e+01
7.731207030276141268e+03 1.000000000000000000e+02
9.274048376657674453e+03 1.778279410038922776e+02
1.122500811824702578e+04 3.162277660168379612e+02
