# Temperature (K), Pressure (bars)
9.827799674807282599e+02 3.162277660168379394e-04
1.043036630840568250e+03 5.623413251903490971e-04
1.103293295509667814e+03 1.000000000000000021e-03
1.160809524426365215e+03 1.778279410038922752e-03
1.217616391580950221e+03 3.162277660168379394e-03
1.275926028582842946e+03 5.623413251903490971e-03
1.338344007374005514e+03 1.000000000000000021e-02
1.409787068113793111e+03 1.778279410038922925e-02
1.497412525717886183e+03 3.162277660168379134e-02
1.614495476019464604e+03 5.623413251903491145e-02
1.771373294997101084e+03 1.000000000000000056e-01
1.978993969053722367e+03 1.778279410038922925e-01
2.228326871402756296e+03 3.162277660168379412e-01
2.473577890758043395e+03 5.623413251903490728e-01
2.697251956555806828e+03 1.000000000000000000e+00
2.912943863594167851e+03 1.778279410038922759e+00
3.127661715036601890e+03 3.162277660168379523e+00
3.347143722841632098e+03 5.623413251903491172e+00
3.576928849105902373e+03 1.000000000000000000e+01
3.822683305537481829e+03 1.778279410038922848e+01
4.092355243262557906e+03 3.162277660168379256e+01
4.390836424710115352e+03 5.623413251903490817e+01
4.725390925150100884e+03 1.000000000000000000e+02
5.099694372393560116e+03 1.778279410038922776e+02
5.535625319789442983e+03 3.162277660168379612e+02
