# Temperature (K), Pressure (bars)
9.398972179173131281e+02 3.162277660168379394e-03
9.761143814575730175e+02 5.623413251903490971e-03
1.012331545020574140e+03 1.000000000000000021e-02
1.046934046404361879e+03 1.778279410038922925e-02
1.081834373110053775e+03 3.162277660168379134e-02
1.118733018765241923e+03 5.623413251903491145e-02
1.159330326521694360e+03 1.000000000000000056e-01
1.206196766180612940e+03 1.778279410038922925e-01
1.263806846009623314e+03 3.162277660168379412e-01
1.334349050830693841e+03 5.623413251903490728e-01
1.425024516593696262e+03 1.000000000000000000e+00
1.555205218580425480e+03 1.778279410038922759e+00
1.733318523665368502e+03 3.162277660168379523e+00
1.969740759809690417e+03 5.623413251903491172e+00
2.263110205238301660e+03 1.000000000000000000e+01
2.574426731035681314e+03 1.778279410038922848e+01
2.885833183183111032e+03 3.162277660168379256e+01
3.198666444944808063e+03 5.623413251903490817e+01
3.517079887014631367e+03 1.000000000000000000e+02
3.845510651805619091e+03 1.778279410038922776e+02
4.198208836119841180e+03 3.162277660168379612e+02
