# Temperature (K), Pressure (bars)
2.153238657119099116e+03 9.999999999999999547e-07
2.161527686758368873e+03 1.778279410038922901e-06
2.169816716397639084e+03 3.162277660168379191e-06
2.197527794495397302e+03 5.623413251903491208e-06
2.234576244651351772e+03 1.000000000000000082e-05
2.274257376153570476e+03 1.778279410038922901e-05
2.319130949260952548e+03 3.162277660168379530e-05
2.367494281593183132e+03 5.623413251903490700e-05
2.416806980673888575e+03 1.000000000000000048e-04
2.465586513263316192e+03 1.778279410038922698e-04
2.512084630009601369e+03 3.162277660168379394e-04
2.555048475997665264e+03 5.623413251903490971e-04
2.594965476546462469e+03 1.000000000000000021e-03
2.633386948697840126e+03 1.778279410038922752e-03
2.674242699635718964e+03 3.162277660168379394e-03
2.720982354924241463e+03 5.623413251903490971e-03
2.777671720946294499e+03 1.000000000000000021e-02
2.835954646836383745e+03 1.778279410038922925e-02
2.902977741962322398e+03 3.162277660168379134e-02
3.012839946509216134e+03 5.623413251903491145e-02
3.160575037415841962e+03 1.000000000000000056e-01
3.329672497289059720e+03 1.778279410038922925e-01
3.524800119509314754e+03 3.162277660168379412e-01
3.748083619054480096e+03 5.623413251903490728e-01
4.003039433664667740e+03 1.000000000000000000e+00
4.299672647000558754e+03 1.778279410038922759e+00
4.631911563124045642e+03 3.162277660168379523e+00
5.052130412126382907e+03 5.623413251903491172e+00
5.620850837169230545e+03 1.000000000000000000e+01
6.460253157677487252e+03 1.778279410038922848e+01
7.742481971511297161e+03 3.162277660168379256e+01
9.473067546252816101e+03 5.623413251903490817e+01
1.000000000000000000e+04 1.000000000000000000e+02
1.000000000000000000e+04 1.778279410038922776e+02
1.000000000000000000e+04 3.162277660168379612e+02
