# Temperature (K), Pressure (bars)
9.873119598405975239e+02 3.162277660168379394e-04
1.034582940377080149e+03 5.623413251903490971e-04
1.081853923292155514e+03 1.000000000000000021e-03
1.130222161507548662e+03 1.778279410038922752e-03
1.179748030865805049e+03 3.162277660168379394e-03
1.231125522877844560e+03 5.623413251903490971e-03
1.283955142490471871e+03 1.000000000000000021e-02
1.339095295174507783e+03 1.778279410038922925e-02
1.398936425124597463e+03 3.162277660168379134e-02
1.469701068526661629e+03 5.623413251903491145e-02
1.560188114405376837e+03 1.000000000000000056e-01
1.685047701098430480e+03 1.778279410038922925e-01
1.846996329757679405e+03 3.162277660168379412e-01
2.047862692513657066e+03 5.623413251903490728e-01
2.295905622317923644e+03 1.000000000000000000e+00
2.556434370606179527e+03 1.778279410038922759e+00
2.802490833071894031e+03 3.162277660168379523e+00
3.043067244950362237e+03 5.623413251903491172e+00
3.284886533656898337e+03 1.000000000000000000e+01
3.534433114159043271e+03 1.778279410038922848e+01
3.799745786545738156e+03 3.162277660168379256e+01
4.086672122093214966e+03 5.623413251903490817e+01
4.401982197527911012e+03 1.000000000000000000e+02
4.748706986009419779e+03 1.778279410038922776e+02
5.145411767012762539e+03 3.162277660168379612e+02
