# Temperature (K), Pressure (bars)
2.243763492118092927e+03 9.999999999999999547e-07
2.264329095120678630e+03 1.778279410038922901e-06
2.284894698123264334e+03 3.162277660168379191e-06
2.309299565399417133e+03 5.623413251903491208e-06
2.335748739151394147e+03 1.000000000000000082e-05
2.362362738602552781e+03 1.778279410038922901e-05
2.388255782883732081e+03 3.162277660168379530e-05
2.410999483539378616e+03 5.623413251903490700e-05
2.427026682632897518e+03 1.000000000000000048e-04
2.435566073062903797e+03 1.778279410038922698e-04
2.441987410609046947e+03 3.162277660168379394e-04
2.453189580074413698e+03 5.623413251903490971e-04
2.472573905442754494e+03 1.000000000000000021e-03
2.500674378801843886e+03 1.778279410038922752e-03
2.538054440559971681e+03 3.162277660168379394e-03
2.584262885345464383e+03 5.623413251903490971e-03
2.640603369410623145e+03 1.000000000000000021e-02
2.702854718065086672e+03 1.778279410038922925e-02
2.783023597689492817e+03 3.162277660168379134e-02
2.903499491117464913e+03 5.623413251903491145e-02
3.047157209460236572e+03 1.000000000000000056e-01
3.200203868914821214e+03 1.778279410038922925e-01
3.371649845005194493e+03 3.162277660168379412e-01
3.565031775873578226e+03 5.623413251903490728e-01
3.782779822068939666e+03 1.000000000000000000e+00
4.027519658712148612e+03 1.778279410038922759e+00
4.305217702589175133e+03 3.162277660168379523e+00
4.627395975592367904e+03 5.623413251903491172e+00
5.004621522894059126e+03 1.000000000000000000e+01
5.477006471560286627e+03 1.778279410038922848e+01
6.101340469808716080e+03 3.162277660168379256e+01
6.983910261797285784e+03 5.623413251903490817e+01
8.275613520249447902e+03 1.000000000000000000e+02
1.000000000000000000e+04 1.778279410038922776e+02
1.000000000000000000e+04 3.162277660168379612e+02
