# Temperature (K), Pressure (bars)
9.543272195164051936e+02 5.623413251903490971e-04
1.001213440137703287e+03 1.000000000000000021e-03
1.048099662811907820e+03 1.778279410038922752e-03
1.095782752713320633e+03 3.162277660168379394e-03
1.144388572974561839e+03 5.623413251903490971e-03
1.194254585920921500e+03 1.000000000000000021e-02
1.245651391339019256e+03 1.778279410038922925e-02
1.299471779071169976e+03 3.162277660168379134e-02
1.359349128220625516e+03 5.623413251903491145e-02
1.433075410714541704e+03 1.000000000000000056e-01
1.529663125923080770e+03 1.778279410038922925e-01
1.658230207644966413e+03 3.162277660168379412e-01
1.815957397100658454e+03 5.623413251903490728e-01
2.008716031761758813e+03 1.000000000000000000e+00
2.253360498508068304e+03 1.778279410038922759e+00
2.524878197905555226e+03 3.162277660168379523e+00
2.791345481520522299e+03 5.623413251903491172e+00
3.051816099684518576e+03 1.000000000000000000e+01
3.312687479660095505e+03 1.778279410038922848e+01
3.582538970688028712e+03 3.162277660168379256e+01
3.868129178858258911e+03 5.623413251903490817e+01
4.176611498921985913e+03 1.000000000000000000e+02
4.511514431343109209e+03 1.778279410038922776e+02
4.889382108221322596e+03 3.162277660168379612e+02
