# Temperature (K), Pressure (bars)
1.500798812497974041e+03 1.000000000000000082e-05
1.525283914608087571e+03 1.778279410038922901e-05
1.549769019686085130e+03 3.162277660168379530e-05
1.579432603854482295e+03 5.623413251903490700e-05
1.617416988737675410e+03 1.000000000000000048e-04
1.657023614942214635e+03 1.778279410038922698e-04
1.702738001807083265e+03 3.162277660168379394e-04
1.764845865122821806e+03 5.623413251903490971e-04
1.821542055555949446e+03 1.000000000000000021e-03
1.860007499898270225e+03 1.778279410038922752e-03
1.893679530824477524e+03 3.162277660168379394e-03
1.926099242193585269e+03 5.623413251903490971e-03
1.955842242705462013e+03 1.000000000000000021e-02
1.984936197351090186e+03 1.778279410038922925e-02
2.017272133455193625e+03 3.162277660168379134e-02
2.055841330131424002e+03 5.623413251903491145e-02
2.110163184787660157e+03 1.000000000000000056e-01
2.175255403898504028e+03 1.778279410038922925e-01
2.278293945661477210e+03 3.162277660168379412e-01
2.466552944320813822e+03 5.623413251903490728e-01
2.691027859855379575e+03 1.000000000000000000e+00
2.905470391871479933e+03 1.778279410038922759e+00
3.121348908276827387e+03 3.162277660168379523e+00
3.343310971475487349e+03 5.623413251903491172e+00
3.575412051259541840e+03 1.000000000000000000e+01
3.822819913895407808e+03 1.778279410038922848e+01
4.092881456783553404e+03 3.162277660168379256e+01
4.391605323303703699e+03 5.623413251903490817e+01
4.726412459912436134e+03 1.000000000000000000e+02
5.100506956915223782e+03 1.778279410038922776e+02
5.536653130295791925e+03 3.162277660168379612e+02
