# Temperature (K), Pressure (bars)
2.309996986760161235e+03 9.999999999999999547e-07
2.331290723266731220e+03 1.778279410038922901e-06
2.352584459773303024e+03 3.162277660168379191e-06
2.376671119960500164e+03 5.623413251903491208e-06
2.401636113083070086e+03 1.000000000000000082e-05
2.427523481337188969e+03 1.778279410038922901e-05
2.455344773115831231e+03 3.162277660168379530e-05
2.484307403090298521e+03 5.623413251903490700e-05
2.512870478067696695e+03 1.000000000000000048e-04
2.539126698301757642e+03 1.778279410038922698e-04
2.561653696672294245e+03 3.162277660168379394e-04
2.580948424625324606e+03 5.623413251903490971e-04
2.600243511528061845e+03 1.000000000000000021e-03
2.623931992513800196e+03 1.778279410038922752e-03
2.655594655303447780e+03 3.162277660168379394e-03
2.697587493381940021e+03 5.623413251903490971e-03
2.752502634223237692e+03 1.000000000000000021e-02
2.823345582855469729e+03 1.778279410038922925e-02
2.919673799243631493e+03 3.162277660168379134e-02
3.047132761697290789e+03 5.623413251903491145e-02
3.195051640694532580e+03 1.000000000000000056e-01
3.359413187568802641e+03 1.778279410038922925e-01
3.547056190792943653e+03 3.162277660168379412e-01
3.763996402466387735e+03 5.623413251903490728e-01
4.017263510491271518e+03 1.000000000000000000e+00
4.318072403156962537e+03 1.778279410038922759e+00
4.656464952718026325e+03 3.162277660168379523e+00
5.087831216803897405e+03 5.623413251903491172e+00
5.675074924583698703e+03 1.000000000000000000e+01
6.533606744097292903e+03 1.778279410038922848e+01
7.836207223183008864e+03 3.162277660168379256e+01
9.588765333933330112e+03 5.623413251903490817e+01
1.168737080970137504e+04 1.000000000000000000e+02
1.422651198219185244e+04 1.778279410038922776e+02
1.725536869198647400e+04 3.162277660168379612e+02
