# Temperature (K), Pressure (bars)
1.503066287946369812e+03 5.623413251903491208e-06
1.534378014197149241e+03 1.000000000000000082e-05
1.565689746561278071e+03 1.778279410038922901e-05
1.608995964094115834e+03 3.162277660168379530e-05
1.663094935591013837e+03 5.623413251903490700e-05
1.729549088958230186e+03 1.000000000000000048e-04
1.797653283592924026e+03 1.778279410038922698e-04
1.857478607545365776e+03 3.162277660168379394e-04
1.910083841679270790e+03 5.623413251903490971e-04
1.954682257832132109e+03 1.000000000000000021e-03
1.992862679870564989e+03 1.778279410038922752e-03
2.027802462065469399e+03 3.162277660168379394e-03
2.060710082347012758e+03 5.623413251903490971e-03
2.093677552663436927e+03 1.000000000000000021e-02
2.129235828342207242e+03 1.778279410038922925e-02
2.170898173036805474e+03 3.162277660168379134e-02
2.220037532403019213e+03 5.623413251903491145e-02
2.284364957070175933e+03 1.000000000000000056e-01
2.362808137974660895e+03 1.778279410038922925e-01
2.478644678725989706e+03 3.162277660168379412e-01
2.664545742582703951e+03 5.623413251903490728e-01
2.873468065917596050e+03 1.000000000000000000e+00
3.073125132500578729e+03 1.778279410038922759e+00
3.280040234989772216e+03 3.162277660168379523e+00
3.498051485060836058e+03 5.623413251903491172e+00
3.730412240111803385e+03 1.000000000000000000e+01
3.981779098803165198e+03 1.778279410038922848e+01
4.259492061711451242e+03 3.162277660168379256e+01
4.569940276241670290e+03 5.623413251903490817e+01
4.921334478477555422e+03 1.000000000000000000e+02
5.317837018781043298e+03 1.778279410038922776e+02
5.784741207317465523e+03 3.162277660168379612e+02
