# Temperature (K), Pressure (bars)
9.702058573440789360e+02 1.000000000000000021e-03
1.022519825038788213e+03 1.778279410038922752e-03
1.074833794474360502e+03 3.162277660168379394e-03
1.126421067738858710e+03 5.623413251903490971e-03
1.177445541452044608e+03 1.000000000000000021e-02
1.229077382456521718e+03 1.778279410038922925e-02
1.282740018847271358e+03 3.162277660168379134e-02
1.341168520352961195e+03 5.623413251903491145e-02
1.410869800428041799e+03 1.000000000000000056e-01
1.502439640784042240e+03 1.778279410038922925e-01
1.628343325485254127e+03 3.162277660168379412e-01
1.791231293988010748e+03 5.623413251903490728e-01
1.987717528037593638e+03 1.000000000000000000e+00
2.229556329911423745e+03 1.778279410038922759e+00
2.506721452630493332e+03 3.162277660168379523e+00
2.780794046416246601e+03 5.623413251903491172e+00
3.042581764480126367e+03 1.000000000000000000e+01
3.304017032301967902e+03 1.778279410038922848e+01
3.574287205285312211e+03 3.162277660168379256e+01
3.860019857333496475e+03 5.623413251903490817e+01
4.168431031396288745e+03 1.000000000000000000e+02
4.503340590968667129e+03 1.778279410038922776e+02
4.880799339161247190e+03 3.162277660168379612e+02
