# Temperature (K), Pressure (bars)
2.405781905970164644e+03 9.999999999999999547e-07
2.414749875968525885e+03 1.778279410038922901e-06
2.423717845966887126e+03 3.162277660168379191e-06
2.445414558109663176e+03 5.623413251903491208e-06
2.479929820866344471e+03 1.000000000000000082e-05
2.513577288568040785e+03 1.778279410038922901e-05
2.547046514088842287e+03 3.162277660168379530e-05
2.582862649372185842e+03 5.623413251903490700e-05
2.620622067399273874e+03 1.000000000000000048e-04
2.663309920279087237e+03 1.778279410038922698e-04
2.711369369179322803e+03 3.162277660168379394e-04
2.764887499617819685e+03 5.623413251903490971e-04
2.823106641042666524e+03 1.000000000000000021e-03
2.883163827686666082e+03 1.778279410038922752e-03
2.941499598680569306e+03 3.162277660168379394e-03
2.994526380850034002e+03 5.623413251903490971e-03
3.041592170724099105e+03 1.000000000000000021e-02
3.084690705405394056e+03 1.778279410038922925e-02
3.136724586950247158e+03 3.162277660168379134e-02
3.195083157196651428e+03 5.623413251903491145e-02
3.278192002048038376e+03 1.000000000000000056e-01
3.433446157430646053e+03 1.778279410038922925e-01
3.636281080684540029e+03 3.162277660168379412e-01
3.856163634289287529e+03 5.623413251903490728e-01
4.116928748550794808e+03 1.000000000000000000e+00
4.418618207292186526e+03 1.778279410038922759e+00
4.797317908147209891e+03 3.162277660168379523e+00
5.306960349567863886e+03 5.623413251903491172e+00
6.062945671014434083e+03 1.000000000000000000e+01
7.242790971026478474e+03 1.778279410038922848e+01
8.878328879765687816e+03 3.162277660168379256e+01
1.000000000000000000e+04 5.623413251903490817e+01
1.000000000000000000e+04 1.000000000000000000e+02
1.000000000000000000e+04 1.778279410038922776e+02
1.000000000000000000e+04 3.162277660168379612e+02
