# Temperature (K), Pressure (bars)
8.352981183773713383e+02 3.162277660168379394e-04
8.835138318172513436e+02 5.623413251903490971e-04
9.317295463791874681e+02 1.000000000000000021e-03
9.786073814593967199e+02 1.778279410038922752e-03
1.025776960787159624e+03 3.162277660168379394e-03
1.073764132472562551e+03 5.623413251903490971e-03
1.123173958116462245e+03 1.000000000000000021e-02
1.176178394303535924e+03 1.778279410038922925e-02
1.236917391942233962e+03 3.162277660168379134e-02
1.310344096436386963e+03 5.623413251903491145e-02
1.408269010733563391e+03 1.000000000000000056e-01
1.558210024528154690e+03 1.778279410038922925e-01
1.777744595930219248e+03 3.162277660168379412e-01
2.042380166336815364e+03 5.623413251903490728e-01
2.311588099148456877e+03 1.000000000000000000e+00
2.568856269203432475e+03 1.778279410038922759e+00
2.815077042290111422e+03 3.162277660168379523e+00
3.054805854250658740e+03 5.623413251903491172e+00
3.295153673010013335e+03 1.000000000000000000e+01
3.543478693624634616e+03 1.778279410038922848e+01
3.808682359370932772e+03 3.162277660168379256e+01
4.095830575962430885e+03 5.623413251903490817e+01
4.411681077798590195e+03 1.000000000000000000e+02
4.759458790976582350e+03 1.778279410038922776e+02
5.157377563491118963e+03 3.162277660168379612e+02
