# Temperature (K), Pressure (bars)
1.685268817854491317e+03 9.999999999999999547e-07
1.707824191682669834e+03 1.778279410038922901e-06
1.730379565510848579e+03 3.162277660168379191e-06
1.756956257718484494e+03 5.623413251903491208e-06
1.788345287275085411e+03 1.000000000000000082e-05
1.825921179120325633e+03 1.778279410038922901e-05
1.867870775030721234e+03 3.162277660168379530e-05
1.912870285108465396e+03 5.623413251903490700e-05
1.961062293272271290e+03 1.000000000000000048e-04
2.012978919025821597e+03 1.778279410038922698e-04
2.069302088086275944e+03 3.162277660168379394e-04
2.130886791983956300e+03 5.623413251903490971e-04
2.198536108579351094e+03 1.000000000000000021e-03
2.276907173606614379e+03 1.778279410038922752e-03
2.372368771982312865e+03 3.162277660168379394e-03
2.480793613177843781e+03 5.623413251903490971e-03
2.597087529363798240e+03 1.000000000000000021e-02
2.722284771542487761e+03 1.778279410038922925e-02
2.858042012327908196e+03 3.162277660168379134e-02
3.006678180323376182e+03 5.623413251903491145e-02
3.171100691091271528e+03 1.000000000000000056e-01
3.354343681327258309e+03 1.778279410038922925e-01
3.558807424611925853e+03 3.162277660168379412e-01
3.787263356368166569e+03 5.623413251903490728e-01
4.046139550465110915e+03 1.000000000000000000e+00
4.348848010695570338e+03 1.778279410038922759e+00
4.697921975385485894e+03 3.162277660168379523e+00
5.149442357273885136e+03 5.623413251903491172e+00
5.781550368310190606e+03 1.000000000000000000e+01
6.745395487425108513e+03 1.778279410038922848e+01
8.185749626600421834e+03 3.162277660168379256e+01
1.001223844965353419e+04 5.623413251903490817e+01
1.218329120245889862e+04 1.000000000000000000e+02
1.483396257841304759e+04 1.778279410038922776e+02
1.799560536727165527e+04 3.162277660168379612e+02
