# Temperature (K), Pressure (bars)
2.364345537044608591e+03 1.778279410038922901e-06
2.378145354298064831e+03 3.162277660168379191e-06
2.391945174608370962e+03 5.623413251903491208e-06
2.408978159323748969e+03 1.000000000000000082e-05
2.435929642027218961e+03 1.778279410038922901e-05
2.468740676412709945e+03 3.162277660168379530e-05
2.504781819495658965e+03 5.623413251903490700e-05
2.543324948309482352e+03 1.000000000000000048e-04
2.583651956459247231e+03 1.778279410038922698e-04
2.627288946081069298e+03 3.162277660168379394e-04
2.674211036826696727e+03 5.623413251903490971e-04
2.724606434957440797e+03 1.000000000000000021e-03
2.779945345912111861e+03 1.778279410038922752e-03
2.842562280683689551e+03 3.162277660168379394e-03
2.913761132951314266e+03 5.623413251903490971e-03
2.991049014444761724e+03 1.000000000000000021e-02
3.062322728356401058e+03 1.778279410038922925e-02
3.112780740274063646e+03 3.162277660168379134e-02
3.136280592571917168e+03 5.623413251903491145e-02
3.192273353246117495e+03 1.000000000000000056e-01
3.341839086184132157e+03 1.778279410038922925e-01
3.537702346473630314e+03 3.162277660168379412e-01
3.749264378614765064e+03 5.623413251903490728e-01
3.998810759680038700e+03 1.000000000000000000e+00
4.298359318520763736e+03 1.778279410038922759e+00
4.630275075031923734e+03 3.162277660168379523e+00
5.050721704996697554e+03 5.623413251903491172e+00
5.622677996680058641e+03 1.000000000000000000e+01
6.473086467094412910e+03 1.778279410038922848e+01
7.767195980114072881e+03 3.162277660168379256e+01
9.504953213816177595e+03 5.623413251903490817e+01
1.000000000000000000e+04 1.000000000000000000e+02
1.000000000000000000e+04 1.778279410038922776e+02
1.000000000000000000e+04 3.162277660168379612e+02
