# Temperature (K), Pressure (bars)
7.834703879583726120e+02 5.623413251903490700e-05
8.315377646762425456e+02 1.000000000000000048e-04
8.796051425133598514e+02 1.778279410038922698e-04
9.269283903108923823e+02 3.162277660168379394e-04
9.740936842714629620e+02 5.623413251903490971e-04
1.022861810559981564e+03 1.000000000000000021e-03
1.074906902388841218e+03 1.778279410038922752e-03
1.132920818255271797e+03 3.162277660168379394e-03
1.199312653570134444e+03 5.623413251903490971e-03
1.279129956539767818e+03 1.000000000000000021e-02
1.376419630721445628e+03 1.778279410038922925e-02
1.514496008780374723e+03 3.162277660168379134e-02
1.722267125812755239e+03 5.623413251903491145e-02
1.973016860705067529e+03 1.000000000000000056e-01
2.222555589855738617e+03 1.778279410038922925e-01
2.454723723617147698e+03 3.162277660168379412e-01
2.668868855135203376e+03 5.623413251903490728e-01
2.872268632175875609e+03 1.000000000000000000e+00
3.072680128675267952e+03 1.778279410038922759e+00
3.276795355979403212e+03 3.162277660168379523e+00
3.490305128065822828e+03 5.623413251903491172e+00
3.718292366915159619e+03 1.000000000000000000e+01
3.965965597537234316e+03 1.778279410038922848e+01
4.241459234843568993e+03 3.162277660168379256e+01
4.549283035090536941e+03 5.623413251903490817e+01
4.897295646607583876e+03 1.000000000000000000e+02
5.289329693772340761e+03 1.778279410038922776e+02
5.750666720104880369e+03 3.162277660168379612e+02
