# Temperature (K), Pressure (bars)
1.108110785789741840e+03 5.623413251903490700e-05
1.144566136711161562e+03 1.000000000000000048e-04
1.186003980552077792e+03 1.778279410038922698e-04
1.232641606427814168e+03 3.162277660168379394e-04
1.283117883468142054e+03 5.623413251903490971e-04
1.336995638803724660e+03 1.000000000000000021e-03
1.394928594990257352e+03 1.778279410038922752e-03
1.458425963166983365e+03 3.162277660168379394e-03
1.528451358984064882e+03 5.623413251903490971e-03
1.611436231747638658e+03 1.000000000000000021e-02
1.709755588677144033e+03 1.778279410038922925e-02
1.846261680640735904e+03 3.162277660168379134e-02
2.047117900512537062e+03 5.623413251903491145e-02
2.269571462828482254e+03 1.000000000000000056e-01
2.474363660500848709e+03 1.778279410038922925e-01
2.667638779827245344e+03 3.162277660168379412e-01
2.856525621454744396e+03 5.623413251903490728e-01
3.046624999797477813e+03 1.000000000000000000e+00
3.241937704926416700e+03 1.778279410038922759e+00
3.446009850561002168e+03 3.162277660168379523e+00
3.662879300769449401e+03 5.623413251903491172e+00
3.897234973366550093e+03 1.000000000000000000e+01
4.154332264535540162e+03 1.778279410038922848e+01
4.440305646163164056e+03 3.162277660168379256e+01
4.763107798955171347e+03 5.623413251903490817e+01
5.137411944216491975e+03 1.000000000000000000e+02
5.572225783026093268e+03 1.778279410038922776e+02
6.085364461086204756e+03 3.162277660168379612e+02
