# Temperature (K), Pressure (bars)
1.280833841788809877e+03 5.623413251903491208e-06
1.344406245562296817e+03 1.000000000000000082e-05
1.407978652252450502e+03 1.778279410038922901e-05
1.472776271314544829e+03 3.162277660168379530e-05
1.529148005079380710e+03 5.623413251903490700e-05
1.576093996279447992e+03 1.000000000000000048e-04
1.620733075239587379e+03 1.778279410038922698e-04
1.666169558990627365e+03 3.162277660168379394e-04
1.711902932188772866e+03 5.623413251903490971e-04
1.758022489635216743e+03 1.000000000000000021e-03
1.808838072751897926e+03 1.778279410038922752e-03
1.863613928211602570e+03 3.162277660168379394e-03
1.919562773922186352e+03 5.623413251903490971e-03
1.979093540117431075e+03 1.000000000000000021e-02
2.044611663373850206e+03 1.778279410038922925e-02
2.120854554689831730e+03 3.162277660168379134e-02
2.210437934117978330e+03 5.623413251903491145e-02
2.335824052137597391e+03 1.000000000000000056e-01
2.512212488987266624e+03 1.778279410038922925e-01
2.700622164633435204e+03 3.162277660168379412e-01
2.881699756110634553e+03 5.623413251903490728e-01
3.068531556964843276e+03 1.000000000000000000e+00
3.263973426994672991e+03 1.778279410038922759e+00
3.469741580975140550e+03 3.162277660168379523e+00
3.688919260382286666e+03 5.623413251903491172e+00
3.926079478016159101e+03 1.000000000000000000e+01
4.186658334974520585e+03 1.778279410038922848e+01
4.477069250164284313e+03 3.162277660168379256e+01
4.805659213471163639e+03 5.623413251903490817e+01
5.187578889962047469e+03 1.000000000000000000e+02
5.632898808212987205e+03 1.778279410038922776e+02
6.161164909041025567e+03 3.162277660168379612e+02
