# Temperature (K), Pressure (bars)
7.759833172829822843e+02 3.162277660168379191e-06
8.198495297816521088e+02 5.623413251903491208e-06
8.637157445985498043e+02 1.000000000000000082e-05
9.116768979443241960e+02 1.778279410038922901e-05
9.628014545759674547e+02 3.162277660168379530e-05
1.012621042945015461e+03 5.623413251903490700e-05
1.059133650453315113e+03 1.000000000000000048e-04
1.103235277093396007e+03 1.778279410038922698e-04
1.142854257564784803e+03 3.162277660168379394e-04
1.175699804731605582e+03 5.623413251903490971e-04
1.205164047471805134e+03 1.000000000000000021e-03
1.235134841833307519e+03 1.778279410038922752e-03
1.267193609559349625e+03 3.162277660168379394e-03
1.296542513053752828e+03 5.623413251903490971e-03
1.332685402685378449e+03 1.000000000000000021e-02
1.415855061004846675e+03 1.778279410038922925e-02
1.546943515601516765e+03 3.162277660168379134e-02
1.701479756272637815e+03 5.623413251903491145e-02
1.863598812916050747e+03 1.000000000000000056e-01
2.042030897712555543e+03 1.778279410038922925e-01
2.270971909259386393e+03 3.162277660168379412e-01
2.513134559876833464e+03 5.623413251903490728e-01
2.733425461688675568e+03 1.000000000000000000e+00
2.947283151088681734e+03 1.778279410038922759e+00
3.160706958637664684e+03 3.162277660168379523e+00
3.379303128349879898e+03 5.623413251903491172e+00
3.608903068124824586e+03 1.000000000000000000e+01
3.855230425391236622e+03 1.778279410038922848e+01
4.126195955944183879e+03 3.162277660168379256e+01
4.426775710943827107e+03 5.623413251903490817e+01
4.764346745111226483e+03 1.000000000000000000e+02
5.142362241322324735e+03 1.778279410038922776e+02
5.583762122351072321e+03 3.162277660168379612e+02
