# Temperature (K), Pressure (bars)
1.625305377661830107e+03 9.999999999999999547e-07
1.651576603493442235e+03 1.778279410038922901e-06
1.677847829335155438e+03 3.162277660168379191e-06
1.717791685913233323e+03 5.623413251903491208e-06
1.779162491516803584e+03 1.000000000000000082e-05
1.847525344139219669e+03 1.778279410038922901e-05
1.909398890304175893e+03 3.162277660168379530e-05
1.964725493749757561e+03 5.623413251903490700e-05
2.013923727121145021e+03 1.000000000000000048e-04
2.056584928161633798e+03 1.778279410038922698e-04
2.093708899624533842e+03 3.162277660168379394e-04
2.127554962622714811e+03 5.623413251903490971e-04
2.160615242195875453e+03 1.000000000000000021e-03
2.194679664252597377e+03 1.778279410038922752e-03
2.231721648017595271e+03 3.162277660168379394e-03
2.273827111536476423e+03 5.623413251903490971e-03
2.324273004907955510e+03 1.000000000000000021e-02
2.385060304021874344e+03 1.778279410038922925e-02
2.462946115625833954e+03 3.162277660168379134e-02
2.571729591574494407e+03 5.623413251903491145e-02
2.708634147025379207e+03 1.000000000000000056e-01
2.859290217267051503e+03 1.778279410038922925e-01
3.020254513285403846e+03 3.162277660168379412e-01
3.194019354688927706e+03 5.623413251903490728e-01
3.381686572958773468e+03 1.000000000000000000e+00
3.583781170588384157e+03 1.778279410038922759e+00
3.802184883533194807e+03 3.162277660168379523e+00
4.040972242012697734e+03 5.623413251903491172e+00
4.306087204231825126e+03 1.000000000000000000e+01
4.605139256097827456e+03 1.778279410038922848e+01
4.948329005046211023e+03 3.162277660168379256e+01
5.353031646099486352e+03 5.623413251903490817e+01
5.835917632774338017e+03 1.000000000000000000e+02
6.425605301568066352e+03 1.778279410038922776e+02
7.166298083423339449e+03 3.162277660168379612e+02
