# Temperature (K), Pressure (bars)
2.210286492665824426e+03 9.999999999999999547e-07
2.230285948135318904e+03 1.778279410038922901e-06
2.250285403604812927e+03 3.162277660168379191e-06
2.280447709124015091e+03 5.623413251903491208e-06
2.316926440610308418e+03 1.000000000000000082e-05
2.357097372167756930e+03 1.778279410038922901e-05
2.400690852320160502e+03 3.162277660168379530e-05
2.445851657105391951e+03 5.623413251903490700e-05
2.490668634785210998e+03 1.000000000000000048e-04
2.532693042613434500e+03 1.778279410038922698e-04
2.570643453386495366e+03 3.162277660168379394e-04
2.605005831858414695e+03 5.623413251903490971e-04
2.637447325874760281e+03 1.000000000000000021e-03
2.670368142275029186e+03 1.778279410038922752e-03
2.707380822743743011e+03 3.162277660168379394e-03
2.751237563080745531e+03 5.623413251903490971e-03
2.806604823847674197e+03 1.000000000000000021e-02
2.873592489964566084e+03 1.778279410038922925e-02
2.963003183944163993e+03 3.162277660168379134e-02
3.092754563724658965e+03 5.623413251903491145e-02
3.249967370102071527e+03 1.000000000000000056e-01
3.427368935620998400e+03 1.778279410038922925e-01
3.619863172626313826e+03 3.162277660168379412e-01
3.841769342794217664e+03 5.623413251903490728e-01
4.100393240415325636e+03 1.000000000000000000e+00
4.396057857282049554e+03 1.778279410038922759e+00
4.763536941372839465e+03 3.162277660168379523e+00
5.247081298874346430e+03 5.623413251903491172e+00
5.927799184235477696e+03 1.000000000000000000e+01
6.932417187603835373e+03 1.778279410038922848e+01
8.421983369947607571e+03 3.162277660168379256e+01
1.000000000000000000e+04 5.623413251903490817e+01
1.000000000000000000e+04 1.000000000000000000e+02
1.000000000000000000e+04 1.778279410038922776e+02
1.000000000000000000e+04 3.162277660168379612e+02
