# Temperature (K), Pressure (bars)
2.315299149568001212e+03 9.999999999999999547e-07
2.336345467986641324e+03 1.778279410038922901e-06
2.357391786405280982e+03 3.162277660168379191e-06
2.380147105030274815e+03 5.623413251903491208e-06
2.404460638532777921e+03 1.000000000000000082e-05
2.430417766998469233e+03 1.778279410038922901e-05
2.458313615246261634e+03 3.162277660168379530e-05
2.486925134803920628e+03 5.623413251903490700e-05
2.514121807987650300e+03 1.000000000000000048e-04
2.538324573690419129e+03 1.778279410038922698e-04
2.559296640433269204e+03 3.162277660168379394e-04
2.579232075284755410e+03 5.623413251903490971e-04
2.602223339068011683e+03 1.000000000000000021e-03
2.632521798800236866e+03 1.778279410038922752e-03
2.672667604977544215e+03 3.162277660168379394e-03
2.725644005115591426e+03 5.623413251903490971e-03
2.792686561838388570e+03 1.000000000000000021e-02
2.881264770615789985e+03 1.778279410038922925e-02
3.000956414875178780e+03 3.162277660168379134e-02
3.142979647721446781e+03 5.623413251903491145e-02
3.301709883678919141e+03 1.000000000000000056e-01
3.485047363311264689e+03 1.778279410038922925e-01
3.685884394547927513e+03 3.162277660168379412e-01
3.920718681514379114e+03 5.623413251903490728e-01
4.202117746997488211e+03 1.000000000000000000e+00
4.534696811734872426e+03 1.778279410038922759e+00
4.970614899747733944e+03 3.162277660168379523e+00
5.588566003683285089e+03 5.623413251903491172e+00
6.504503467319931588e+03 1.000000000000000000e+01
7.877467668523392604e+03 1.778279410038922848e+01
9.649593174450321385e+03 3.162277660168379256e+01
1.000000000000000000e+04 5.623413251903490817e+01
1.000000000000000000e+04 1.000000000000000000e+02
1.000000000000000000e+04 1.778279410038922776e+02
1.000000000000000000e+04 3.162277660168379612e+02
