# Temperature (K), Pressure (bars)
1.147729305349485912e+03 9.999999999999999547e-07
1.190573566088324242e+03 1.778279410038922901e-06
1.233417826828125044e+03 3.162277660168379191e-06
1.277750996330341877e+03 5.623413251903491208e-06
1.324187014519768809e+03 1.000000000000000082e-05
1.373786136349888693e+03 1.778279410038922901e-05
1.430765494327234592e+03 3.162277660168379530e-05
1.496252953383032491e+03 5.623413251903490700e-05
1.570626298790575220e+03 1.000000000000000048e-04
1.656392515532297239e+03 1.778279410038922698e-04
1.748384240869746463e+03 3.162277660168379394e-04
1.841780674385763177e+03 5.623413251903490971e-04
1.944296004750755856e+03 1.000000000000000021e-03
2.068290549095569077e+03 1.778279410038922752e-03
2.211622610299217740e+03 3.162277660168379394e-03
2.361119238652198874e+03 5.623413251903490971e-03
2.511731899530182545e+03 1.000000000000000021e-02
2.665394203962319352e+03 1.778279410038922925e-02
2.824546599145685832e+03 3.162277660168379134e-02
2.991834568375458730e+03 5.623413251903491145e-02
3.169789602300102160e+03 1.000000000000000056e-01
3.360306922759149984e+03 1.778279410038922925e-01
3.565615251939367226e+03 3.162277660168379412e-01
3.790462867541580636e+03 5.623413251903490728e-01
4.043641155169550075e+03 1.000000000000000000e+00
4.338797061881017726e+03 1.778279410038922759e+00
4.683866711648218370e+03 3.162277660168379523e+00
5.127646544057491155e+03 5.623413251903491172e+00
5.739843499921445982e+03 1.000000000000000000e+01
6.631017570467861333e+03 1.778279410038922848e+01
7.962296172653459507e+03 3.162277660168379256e+01
9.740451046218195188e+03 5.623413251903490817e+01
1.186258971673687302e+04 1.000000000000000000e+02
1.443751527898497261e+04 1.778279410038922776e+02
1.750858371450107734e+04 3.162277660168379612e+02
