# Temperature (K), Pressure (bars)
1.170650736491350472e+03 9.999999999999999547e-07
1.173495705939955315e+03 1.778279410038922901e-06
1.176340675402421994e+03 3.162277660168379191e-06
1.184586634753458384e+03 5.623413251903491208e-06
1.200000020062498606e+03 1.000000000000000082e-05
1.222323462050297394e+03 1.778279410038922901e-05
1.251164034875567722e+03 3.162277660168379530e-05
1.287615101655462240e+03 5.623413251903490700e-05
1.331923294645774149e+03 1.000000000000000048e-04
1.383336717123012022e+03 1.778279410038922698e-04
1.439560618813202836e+03 3.162277660168379394e-04
1.504120673869998654e+03 5.623413251903490971e-04
1.583503559402738574e+03 1.000000000000000021e-03
1.666922546939001222e+03 1.778279410038922752e-03
1.745572497782544360e+03 3.162277660168379394e-03
1.828254620721556648e+03 5.623413251903490971e-03
1.918361374646627382e+03 1.000000000000000021e-02
2.027491205809352323e+03 1.778279410038922925e-02
2.176805119410130828e+03 3.162277660168379134e-02
2.352245934890760509e+03 5.623413251903491145e-02
2.527327647239901580e+03 1.000000000000000056e-01
2.698942045506759314e+03 1.778279410038922925e-01
2.872066967075568300e+03 3.162277660168379412e-01
3.050514266811617290e+03 5.623413251903490728e-01
3.236555471669827057e+03 1.000000000000000000e+00
3.431887558355704641e+03 1.778279410038922759e+00
3.639755484743224770e+03 3.162277660168379523e+00
3.864620686446020954e+03 5.623413251903491172e+00
4.111781511502942521e+03 1.000000000000000000e+01
4.387506930349424692e+03 1.778279410038922848e+01
4.699537972920590619e+03 3.162277660168379256e+01
5.058178071944387739e+03 5.623413251903490817e+01
5.480633281069242912e+03 1.000000000000000000e+02
5.983226950030103581e+03 1.778279410038922776e+02
6.594337031354348255e+03 3.162277660168379612e+02
