# Temperature (K), Pressure (bars)
1.993569613489274843e+03 9.999999999999999547e-07
2.013276261727506835e+03 1.778279410038922901e-06
2.032982909965739282e+03 3.162277660168379191e-06
2.060863420516035603e+03 5.623413251903491208e-06
2.096782418550171769e+03 1.000000000000000082e-05
2.137601821186742200e+03 1.778279410038922901e-05
2.180162917949636267e+03 3.162277660168379530e-05
2.220868320309260071e+03 5.623413251903490700e-05
2.257630431308997231e+03 1.000000000000000048e-04
2.290383896035593352e+03 1.778279410038922698e-04
2.320238592341674575e+03 3.162277660168379394e-04
2.348842028782520174e+03 5.623413251903490971e-04
2.378152389291330564e+03 1.000000000000000021e-03
2.410162510517810460e+03 1.778279410038922752e-03
2.446876540013939120e+03 3.162277660168379394e-03
2.490015447616429810e+03 5.623413251903490971e-03
2.542704983010978140e+03 1.000000000000000021e-02
2.607496654012253657e+03 1.778279410038922925e-02
2.695995131048392977e+03 3.162277660168379134e-02
2.817701113742994949e+03 5.623413251903491145e-02
2.958251478468870573e+03 1.000000000000000056e-01
3.109784379417944365e+03 1.778279410038922925e-01
3.278095195922689072e+03 3.162277660168379412e-01
3.465201894647612789e+03 5.623413251903490728e-01
3.672161215301883203e+03 1.000000000000000000e+00
3.900575043676621135e+03 1.778279410038922759e+00
4.154703697489108890e+03 3.162277660168379523e+00
4.442530001549614099e+03 5.623413251903491172e+00
4.776141218944927459e+03 1.000000000000000000e+01
5.170274980138666251e+03 1.778279410038922848e+01
5.655477651953290660e+03 3.162277660168379256e+01
6.274686178827367257e+03 5.623413251903490817e+01
7.099985473398242902e+03 1.000000000000000000e+02
8.259656074835738764e+03 1.778279410038922776e+02
9.896585710343721075e+03 3.162277660168379612e+02
