# Temperature (K), Pressure (bars)
9.123637568747665227e+02 1.778279410038922901e-05
9.656535280508003325e+02 3.162277660168379530e-05
1.018943298855610465e+03 5.623413251903490700e-05
1.062648234278279688e+03 1.000000000000000048e-04
1.101833960327785917e+03 1.778279410038922698e-04
1.162870773958238715e+03 3.162277660168379394e-04
1.258582258246659649e+03 5.623413251903490971e-04
1.376511454144427262e+03 1.000000000000000021e-03
1.512604639251942217e+03 1.778279410038922752e-03
1.629742177232830500e+03 3.162277660168379394e-03
1.699556194498310560e+03 5.623413251903490971e-03
1.750889449500826231e+03 1.000000000000000021e-02
1.811237589388836113e+03 1.778279410038922925e-02
1.878035054301675473e+03 3.162277660168379134e-02
1.948843757490528787e+03 5.623413251903491145e-02
2.033081548819630598e+03 1.000000000000000056e-01
2.139681944327959627e+03 1.778279410038922925e-01
2.299873838978312506e+03 3.162277660168379412e-01
2.519627037815795120e+03 5.623413251903490728e-01
2.745883967393082003e+03 1.000000000000000000e+00
2.958124997528701897e+03 1.778279410038922759e+00
3.171460705338231037e+03 3.162277660168379523e+00
3.390891023603514896e+03 5.623413251903491172e+00
3.621420481464344903e+03 1.000000000000000000e+01
3.868657355758010453e+03 1.778279410038922848e+01
4.140401789196869686e+03 3.162277660168379256e+01
4.442047019425492181e+03 5.623413251903490817e+01
4.781128450284267274e+03 1.000000000000000000e+02
5.161382662616559173e+03 1.778279410038922776e+02
5.605601365471051395e+03 3.162277660168379612e+02
