# Temperature (K), Pressure (bars)
1.262303777898914404e+03 1.778279410038922901e-06
1.297234275490336358e+03 3.162277660168379191e-06
1.332164774482947450e+03 5.623413251903491208e-06
1.370313278073516358e+03 1.000000000000000082e-05
1.414278535422611412e+03 1.778279410038922901e-05
1.464958836242078632e+03 3.162277660168379530e-05
1.522582250533927891e+03 5.623413251903490700e-05
1.587129630654581888e+03 1.000000000000000048e-04
1.660135091175974821e+03 1.778279410038922698e-04
1.742236903957609911e+03 3.162277660168379394e-04
1.833348616004195719e+03 5.623413251903490971e-04
1.932239586456822508e+03 1.000000000000000021e-03
2.046607044434177851e+03 1.778279410038922752e-03
2.182174375457705537e+03 3.162277660168379394e-03
2.326270104719314531e+03 5.623413251903490971e-03
2.470700596810543630e+03 1.000000000000000021e-02
2.617811093721471934e+03 1.778279410038922925e-02
2.769764804383610226e+03 3.162277660168379134e-02
2.928646494634246210e+03 5.623413251903491145e-02
3.096820722189091612e+03 1.000000000000000056e-01
3.276805399845581633e+03 1.778279410038922925e-01
3.470866106123016380e+03 3.162277660168379412e-01
3.681682019016687264e+03 5.623413251903490728e-01
3.914177266950210196e+03 1.000000000000000000e+00
4.176807491237321301e+03 1.778279410038922759e+00
4.482396159219299079e+03 3.162277660168379523e+00
4.842398075058582435e+03 5.623413251903491172e+00
5.298442128505002074e+03 1.000000000000000000e+01
5.912469436470630171e+03 1.778279410038922848e+01
6.788773701093795353e+03 3.162277660168379256e+01
8.082452768454843863e+03 5.623413251903490817e+01
9.851755580061802902e+03 1.000000000000000000e+02
1.000000000000000000e+04 1.778279410038922776e+02
1.000000000000000000e+04 3.162277660168379612e+02
