# Temperature (K), Pressure (bars)
1.096553005382091214e+03 3.162277660168379394e-04
1.145619976702125768e+03 5.623413251903490971e-04
1.194686950173284458e+03 1.000000000000000021e-03
1.243727709500954916e+03 1.778279410038922752e-03
1.294388498370375146e+03 3.162277660168379394e-03
1.348952583678329802e+03 5.623413251903490971e-03
1.412236206908794657e+03 1.000000000000000021e-02
1.484161738663520282e+03 1.778279410038922925e-02
1.562308029025169617e+03 3.162277660168379134e-02
1.654630708080241220e+03 5.623413251903491145e-02
1.757898611269876028e+03 1.000000000000000056e-01
1.870238376175728945e+03 1.778279410038922925e-01
1.997778929414422237e+03 3.162277660168379412e-01
2.163559370703477271e+03 5.623413251903490728e-01
2.390976042800880350e+03 1.000000000000000000e+00
2.639856199849237328e+03 1.778279410038922759e+00
2.877043273088404476e+03 3.162277660168379523e+00
3.111663583775969073e+03 5.623413251903491172e+00
3.350044744152128715e+03 1.000000000000000000e+01
3.598122330926123595e+03 1.778279410038922848e+01
3.863579703737411819e+03 3.162277660168379256e+01
4.152252039633396635e+03 5.623413251903490817e+01
4.470971841970806963e+03 1.000000000000000000e+02
4.822801098054808790e+03 1.778279410038922776e+02
5.226916650306187876e+03 3.162277660168379612e+02
