# Temperature (K), Pressure (bars)
2.227053660162585857e+03 9.999999999999999547e-07
2.245454283685257906e+03 1.778279410038922901e-06
2.263854907207930410e+03 3.162277660168379191e-06
2.287472098845675646e+03 5.623413251903491208e-06
2.316991523510478601e+03 1.000000000000000082e-05
2.350163965521320279e+03 1.778279410038922901e-05
2.386154740162086455e+03 3.162277660168379530e-05
2.425812401300836427e+03 5.623413251903490700e-05
2.470549056073882639e+03 1.000000000000000048e-04
2.519375118875948829e+03 1.778279410038922698e-04
2.570745463325645687e+03 3.162277660168379394e-04
2.623769906500807338e+03 5.623413251903490971e-04
2.675898764493273120e+03 1.000000000000000021e-03
2.724388674169106707e+03 1.778279410038922752e-03
2.766610666506711823e+03 3.162277660168379394e-03
2.801760971475048791e+03 5.623413251903490971e-03
2.832208963294807290e+03 1.000000000000000021e-02
2.867085283470896684e+03 1.778279410038922925e-02
2.911235655349008994e+03 3.162277660168379134e-02
2.978622894388315217e+03 5.623413251903491145e-02
3.092925561998430567e+03 1.000000000000000056e-01
3.242623189106487644e+03 1.778279410038922925e-01
3.411283177811495534e+03 3.162277660168379412e-01
3.603405941360579618e+03 5.623413251903490728e-01
3.823265169874686762e+03 1.000000000000000000e+00
4.074918349089625735e+03 1.778279410038922759e+00
4.364995333211779325e+03 3.162277660168379523e+00
4.690617413528961151e+03 5.623413251903491172e+00
5.087950617685008183e+03 1.000000000000000000e+01
5.593311093872820493e+03 1.778279410038922848e+01
6.275211011022082857e+03 3.162277660168379256e+01
7.259924789498344580e+03 5.623413251903490817e+01
8.702380613123807052e+03 1.000000000000000000e+02
1.058200168881919308e+04 1.778279410038922776e+02
1.283705485621128355e+04 3.162277660168379612e+02
