# Temperature (K), Pressure (bars)
9.369518478662014331e+02 5.623413251903490700e-05
9.920727116273296815e+02 1.000000000000000048e-04
1.047193576961834196e+03 1.778279410038922698e-04
1.100810109436714811e+03 3.162277660168379394e-04
1.154111093100222433e+03 5.623413251903490971e-04
1.209050628540019716e+03 1.000000000000000021e-03
1.266420974772788668e+03 1.778279410038922752e-03
1.328429920134038866e+03 3.162277660168379394e-03
1.397530253304932558e+03 5.623413251903490971e-03
1.479315853337272074e+03 1.000000000000000021e-02
1.579921523190499101e+03 1.778279410038922925e-02
1.718112481745771674e+03 3.162277660168379134e-02
1.917155303690127994e+03 5.623413251903491145e-02
2.150932803332250387e+03 1.000000000000000056e-01
2.375528486922239154e+03 1.778279410038922925e-01
2.582742684041086250e+03 3.162277660168379412e-01
2.780401797914363669e+03 5.623413251903490728e-01
2.975089610007107240e+03 1.000000000000000000e+00
3.171903713156166305e+03 1.778279410038922759e+00
3.375425819260284243e+03 3.162277660168379523e+00
3.590411049800821274e+03 5.623413251903491172e+00
3.821740279635249863e+03 1.000000000000000000e+01
4.074714962719151572e+03 1.778279410038922848e+01
4.357546174637996955e+03 3.162277660168379256e+01
4.675763529174046198e+03 5.623413251903490817e+01
5.038184800147166243e+03 1.000000000000000000e+02
5.448959997203158309e+03 1.778279410038922776e+02
5.937044226216878997e+03 3.162277660168379612e+02
