# Temperature (K), Pressure (bars)
1.571074896320272046e+03 9.999999999999999547e-07
1.590703394664619282e+03 1.778279410038922901e-06
1.610331893008966290e+03 3.162277660168379191e-06
1.635064258348654676e+03 5.623413251903491208e-06
1.666522308790082661e+03 1.000000000000000082e-05
1.706018622453580065e+03 1.778279410038922901e-05
1.753215049760581906e+03 3.162277660168379530e-05
1.807737703171327666e+03 5.623413251903490700e-05
1.868127375997030867e+03 1.000000000000000048e-04
1.932903282749137816e+03 1.778279410038922698e-04
2.002283508206774968e+03 3.162277660168379394e-04
2.076287385334311693e+03 5.623413251903490971e-04
2.160246282877798876e+03 1.000000000000000021e-03
2.261377060379642444e+03 1.778279410038922752e-03
2.375323771454559392e+03 3.162277660168379394e-03
2.495759193797595799e+03 5.623413251903490971e-03
2.622914073140750588e+03 1.000000000000000021e-02
2.757987007336554598e+03 1.778279410038922925e-02
2.902542088333870197e+03 3.162277660168379134e-02
3.058798803164801939e+03 5.623413251903491145e-02
3.230034355378902546e+03 1.000000000000000056e-01
3.420509221070085005e+03 1.778279410038922925e-01
3.634916693601927363e+03 3.162277660168379412e-01
3.879156715998897653e+03 5.623413251903490728e-01
4.165053538808845587e+03 1.000000000000000000e+00
4.483041217067106118e+03 1.778279410038922759e+00
4.891678681197115111e+03 3.162277660168379523e+00
5.462015653785892027e+03 5.623413251903491172e+00
6.326762864383324086e+03 1.000000000000000000e+01
7.646260010780672928e+03 1.778279410038922848e+01
9.382858309248873411e+03 3.162277660168379256e+01
1.142006443551615484e+04 5.623413251903490817e+01
1.389441275523293916e+04 1.000000000000000000e+02
1.691466459599846348e+04 1.778279410038922776e+02
2.051761400943585613e+04 3.162277660168379612e+02
