# Temperature (K), Pressure (bars)
9.816321038158039300e+02 3.162277660168379530e-05
1.029799591920610965e+03 5.623413251903490700e-05
1.077984257407226778e+03 1.000000000000000048e-04
1.126441853666039378e+03 1.778279410038922698e-04
1.175866978276364534e+03 3.162277660168379394e-04
1.228095784193080362e+03 5.623413251903490971e-04
1.283100660846621622e+03 1.000000000000000021e-03
1.341181446906575729e+03 1.778279410038922752e-03
1.404582959886833123e+03 3.162277660168379394e-03
1.477505463313846576e+03 5.623413251903490971e-03
1.566802372759472746e+03 1.000000000000000021e-02
1.681246117710348472e+03 1.778279410038922925e-02
1.829691518679534056e+03 3.162277660168379134e-02
2.019102399249007249e+03 5.623413251903491145e-02
2.235487197974661285e+03 1.000000000000000056e-01
2.446451421102900895e+03 1.778279410038922925e-01
2.642809398136906111e+03 3.162277660168379412e-01
2.834015670121834773e+03 5.623413251903490728e-01
3.025507428390980749e+03 1.000000000000000000e+00
3.221214205339041655e+03 1.778279410038922759e+00
3.424965922577812307e+03 3.162277660168379523e+00
3.641188927542447345e+03 5.623413251903491172e+00
3.874727724918728200e+03 1.000000000000000000e+01
4.130839653776101841e+03 1.778279410038922848e+01
4.415571553184940967e+03 3.162277660168379256e+01
4.736758147777714839e+03 5.623413251903490817e+01
5.109061951336046150e+03 1.000000000000000000e+02
5.541025505140120003e+03 1.778279410038922776e+02
6.050198825385899909e+03 3.162277660168379612e+02
