# Temperature (K), Pressure (bars)
1.810355400658731014e+03 9.999999999999999547e-07
1.810844629697470737e+03 1.778279410038922901e-06
1.811333858736416914e+03 3.162277660168379191e-06
1.822139812355326967e+03 5.623413251903491208e-06
1.842191182730671699e+03 1.000000000000000082e-05
1.867926653383555504e+03 1.778279410038922901e-05
1.899560571585494245e+03 3.162277660168379530e-05
1.935969016682280198e+03 5.623413251903490700e-05
1.974376557679912594e+03 1.000000000000000048e-04
2.013997793424228121e+03 1.778279410038922698e-04
2.053536716310919019e+03 3.162277660168379394e-04
2.092085121318990787e+03 5.623413251903490971e-04
2.131279264425299061e+03 1.000000000000000021e-03
2.173000937100453939e+03 1.778279410038922752e-03
2.218278808449738335e+03 3.162277660168379394e-03
2.269170491064988710e+03 5.623413251903490971e-03
2.328195751865078819e+03 1.000000000000000021e-02
2.401125898824091564e+03 1.778279410038922925e-02
2.501464728170414219e+03 3.162277660168379134e-02
2.630247314368103616e+03 5.623413251903491145e-02
2.772066764768655048e+03 1.000000000000000056e-01
2.921253586145780901e+03 1.778279410038922925e-01
3.081264590752278309e+03 3.162277660168379412e-01
3.254332234629786399e+03 5.623413251903490728e-01
3.442375955464057370e+03 1.000000000000000000e+00
3.646915233630089460e+03 1.778279410038922759e+00
3.870019907301311378e+03 3.162277660168379523e+00
4.115678202031855108e+03 5.623413251903491172e+00
4.390157024585080762e+03 1.000000000000000000e+01
4.702186253106327968e+03 1.778279410038922848e+01
5.065195950857108073e+03 3.162277660168379256e+01
5.495218505818314043e+03 5.623413251903490817e+01
6.015862427966387258e+03 1.000000000000000000e+02
6.663335788347155358e+03 1.778279410038922776e+02
7.496462487897405481e+03 3.162277660168379612e+02
