# Temperature (K), Pressure (bars)
9.193411483304396370e+02 5.623413251903490971e-04
9.619542935939203971e+02 1.000000000000000021e-03
1.004567440022429082e+03 1.778279410038922752e-03
1.047659884059247361e+03 3.162277660168379394e-03
1.092378225153042195e+03 5.623413251903490971e-03
1.138637935940109628e+03 1.000000000000000021e-02
1.186857334124421641e+03 1.778279410038922925e-02
1.238405450276988631e+03 3.162277660168379134e-02
1.295914172754362426e+03 5.623413251903491145e-02
1.367209807556732585e+03 1.000000000000000056e-01
1.479819316248230507e+03 1.778279410038922925e-01
1.653584904310361708e+03 3.162277660168379412e-01
1.882616035295775191e+03 5.623413251903490728e-01
2.151987460759907663e+03 1.000000000000000000e+00
2.426873400729028617e+03 1.778279410038922759e+00
2.687230552569254087e+03 3.162277660168379523e+00
2.939014480405224731e+03 5.623413251903491172e+00
3.187828398175827260e+03 1.000000000000000000e+01
3.440919544132844749e+03 1.778279410038922848e+01
3.707332475907450316e+03 3.162277660168379256e+01
3.993041479428656658e+03 5.623413251903490817e+01
4.304872782128235485e+03 1.000000000000000000e+02
4.646155439005188782e+03 1.778279410038922776e+02
5.034136621442383330e+03 3.162277660168379612e+02
