# Temperature (K), Pressure (bars)
8.237492843220285295e+02 3.162277660168379394e-04
8.679976784326119059e+02 5.623413251903490971e-04
9.122460737228550443e+02 1.000000000000000021e-03
9.553528733032076161e+02 1.778279410038922752e-03
9.989653045285763255e+02 3.162277660168379394e-03
1.043753089089181231e+03 5.623413251903490971e-03
1.089852647051884333e+03 1.000000000000000021e-02
1.138966791434182596e+03 1.778279410038922925e-02
1.194951171120656909e+03 3.162277660168379134e-02
1.262149695510857100e+03 5.623413251903491145e-02
1.354120768371394433e+03 1.000000000000000056e-01
1.491444781692328661e+03 1.778279410038922925e-01
1.689584768954642868e+03 3.162277660168379412e-01
1.942786931244930202e+03 5.623413251903490728e-01
2.215114718830765469e+03 1.000000000000000000e+00
2.480723922395217414e+03 1.778279410038922759e+00
2.736083100267127065e+03 3.162277660168379523e+00
2.982856177264103735e+03 5.623413251903491172e+00
3.227679594879800788e+03 1.000000000000000000e+01
3.478302881528623857e+03 1.778279410038922848e+01
3.743992201753176687e+03 3.162277660168379256e+01
4.030023398768038533e+03 5.623413251903490817e+01
4.343139346392745210e+03 1.000000000000000000e+02
4.686506053188597434e+03 1.778279410038922776e+02
5.077982148225431047e+03 3.162277660168379612e+02
