# Temperature (K), Pressure (bars)
1.816454926123031328e+03 1.778279410038922901e-06
1.833061044084927744e+03 3.162277660168379191e-06
1.849873284149068240e+03 5.623413251903491208e-06
1.870000599589495323e+03 1.000000000000000082e-05
1.896232723695628465e+03 1.778279410038922901e-05
1.928619727027899899e+03 3.162277660168379530e-05
1.965436071347678762e+03 5.623413251903490700e-05
2.006901169432700726e+03 1.000000000000000048e-04
2.052464783720409741e+03 1.778279410038922698e-04
2.100519187420874914e+03 3.162277660168379394e-04
2.151279800388794683e+03 5.623413251903490971e-04
2.205287008678706115e+03 1.000000000000000021e-03
2.264143667490749976e+03 1.778279410038922752e-03
2.329753919150338334e+03 3.162277660168379394e-03
2.410789828248390677e+03 5.623413251903490971e-03
2.515217043123691383e+03 1.000000000000000021e-02
2.633900346333743983e+03 1.778279410038922925e-02
2.760203704508104693e+03 3.162277660168379134e-02
2.896819402977811023e+03 5.623413251903491145e-02
3.045218061952619792e+03 1.000000000000000056e-01
3.207421258599931207e+03 1.778279410038922925e-01
3.386030691101838784e+03 3.162277660168379412e-01
3.583863185359237832e+03 5.623413251903490728e-01
3.803762211950886467e+03 1.000000000000000000e+00
4.049757215239569177e+03 1.778279410038922759e+00
4.329314026080828626e+03 3.162277660168379523e+00
4.655055812850332586e+03 5.623413251903491172e+00
5.039859705943498739e+03 1.000000000000000000e+01
5.524307280950147288e+03 1.778279410038922848e+01
6.164376601442441824e+03 3.162277660168379256e+01
7.051682109977556138e+03 5.623413251903490817e+01
8.342048045281491795e+03 1.000000000000000000e+02
1.011619937500500237e+04 1.778279410038922776e+02
1.226803310022069854e+04 3.162277660168379612e+02
