# Temperature (K), Pressure (bars)
8.099288525510398813e+02 3.162277660168379394e-04
8.605647897393112089e+02 5.623413251903490971e-04
9.112007280578977770e+02 1.000000000000000021e-03
9.599700926617608729e+02 1.778279410038922752e-03
1.008118172811205682e+03 3.162277660168379394e-03
1.057738471741090734e+03 5.623413251903490971e-03
1.111566392971354389e+03 1.000000000000000021e-02
1.173732686656320084e+03 1.778279410038922925e-02
1.248613166788128865e+03 3.162277660168379134e-02
1.346178656357955788e+03 5.623413251903491145e-02
1.485441509703412521e+03 1.000000000000000056e-01
1.687223625427195429e+03 1.778279410038922925e-01
1.943265313082093826e+03 3.162277660168379412e-01
2.210976336395432099e+03 5.623413251903490728e-01
2.465503846136251013e+03 1.000000000000000000e+00
2.706746931769751427e+03 1.778279410038922759e+00
2.938294042874064871e+03 3.162277660168379523e+00
3.167294005627109073e+03 5.623413251903491172e+00
3.401099847699133079e+03 1.000000000000000000e+01
3.646468330212168894e+03 1.778279410038922848e+01
3.911864044745737829e+03 3.162277660168379256e+01
4.201866687510646443e+03 5.623413251903490817e+01
4.523221488597922871e+03 1.000000000000000000e+02
4.879080849823412791e+03 1.778279410038922776e+02
5.289024743468722590e+03 3.162277660168379612e+02
