# Temperature (K), Pressure (bars)
1.761886754546507746e+03 9.999999999999999547e-07
1.806443151807042341e+03 1.778279410038922901e-06
1.850999549067576936e+03 3.162277660168379191e-06
1.897307102038799485e+03 5.623413251903491208e-06
1.943750600655982453e+03 1.000000000000000082e-05
1.988926693951480274e+03 1.778279410038922901e-05
2.032748001685806912e+03 3.162277660168379530e-05
2.074754993702567390e+03 5.623413251903490700e-05
2.115988752375631975e+03 1.000000000000000048e-04
2.158873246907156954e+03 1.778279410038922698e-04
2.204848927397117222e+03 3.162277660168379394e-04
2.256121075647958151e+03 5.623413251903490971e-04
2.314425815129045077e+03 1.000000000000000021e-03
2.384578463382130849e+03 1.778279410038922752e-03
2.474244269611446725e+03 3.162277660168379394e-03
2.580932198307533781e+03 5.623413251903490971e-03
2.698965608693584727e+03 1.000000000000000021e-02
2.828175587139433901e+03 1.778279410038922925e-02
2.969866477632919668e+03 3.162277660168379134e-02
3.126795839581372547e+03 5.623413251903491145e-02
3.304028742003813932e+03 1.000000000000000056e-01
3.499727064138764945e+03 1.778279410038922925e-01
3.710541576728493055e+03 3.162277660168379412e-01
3.958180345226000554e+03 5.623413251903490728e-01
4.245348519134872731e+03 1.000000000000000000e+00
4.595762925291990541e+03 1.778279410038922759e+00
5.066065485544907460e+03 3.162277660168379523e+00
5.748478488025840306e+03 5.623413251903491172e+00
6.767103981315699457e+03 1.000000000000000000e+01
8.266970557366221328e+03 1.778279410038922848e+01
1.000000000000000000e+04 3.162277660168379256e+01
1.000000000000000000e+04 5.623413251903490817e+01
1.000000000000000000e+04 1.000000000000000000e+02
1.000000000000000000e+04 1.778279410038922776e+02
1.000000000000000000e+04 3.162277660168379612e+02
