# Temperature (K), Pressure (bars)
8.112425240924349055e+02 5.623413251903490971e-04
8.520588635448657442e+02 1.000000000000000021e-03
8.928752042636230044e+02 1.778279410038922752e-03
9.328984063311763748e+02 3.162277660168379394e-03
9.731297524486981274e+02 5.623413251903490971e-03
1.014624791200649952e+03 1.000000000000000021e-02
1.057275255455107981e+03 1.778279410038922925e-02
1.102110503653781507e+03 3.162277660168379134e-02
1.152380887470483003e+03 5.623413251903491145e-02
1.212538675984109886e+03 1.000000000000000056e-01
1.289486554046742185e+03 1.778279410038922925e-01
1.391680282641181066e+03 3.162277660168379412e-01
1.548469379305748816e+03 5.623413251903490728e-01
1.780183680607442739e+03 1.000000000000000000e+00
2.053216551557468392e+03 1.778279410038922759e+00
2.335592238362508397e+03 3.162277660168379523e+00
2.617426336635634925e+03 5.623413251903491172e+00
2.892543376281520068e+03 1.000000000000000000e+01
3.164006751777491900e+03 1.778279410038922848e+01
3.440306975384687121e+03 3.162277660168379256e+01
3.728151684614157602e+03 5.623413251903490817e+01
4.035168269187680380e+03 1.000000000000000000e+02
4.365612952254190532e+03 1.778279410038922776e+02
4.734676492883082574e+03 3.162277660168379612e+02
