# Temperature (K), Pressure (bars)
2.247181471398796020e+03 9.999999999999999547e-07
2.264862809044645928e+03 1.778279410038922901e-06
2.282544146690604975e+03 3.162277660168379191e-06
2.302831758294408246e+03 5.623413251903491208e-06
2.324808610350663002e+03 1.000000000000000082e-05
2.347183089838947581e+03 1.778279410038922901e-05
2.369801364259314141e+03 3.162277660168379530e-05
2.392489971119268830e+03 5.623413251903490700e-05
2.414644718080582606e+03 1.000000000000000048e-04
2.435755443234282211e+03 1.778279410038922698e-04
2.455872787457884897e+03 3.162277660168379394e-04
2.475336527964647303e+03 5.623413251903490971e-04
2.495332598338312437e+03 1.000000000000000021e-03
2.517945690166761779e+03 1.778279410038922752e-03
2.545611279358194224e+03 3.162277660168379394e-03
2.579962024225431833e+03 5.623413251903490971e-03
2.623931045529263884e+03 1.000000000000000021e-02
2.678153645512506046e+03 1.778279410038922925e-02
2.750279549542794939e+03 3.162277660168379134e-02
2.855177122180185052e+03 5.623413251903491145e-02
2.987001126113317241e+03 1.000000000000000056e-01
3.134033393861077457e+03 1.778279410038922925e-01
3.297149164079957700e+03 3.162277660168379412e-01
3.479421217764652283e+03 5.623413251903490728e-01
3.683538879434219780e+03 1.000000000000000000e+00
3.911756869655788250e+03 1.778279410038922759e+00
4.167667423291202795e+03 3.162277660168379523e+00
4.458479970005197174e+03 5.623413251903491172e+00
4.796258919288589823e+03 1.000000000000000000e+01
5.196135952705694763e+03 1.778279410038922848e+01
5.692427016787240063e+03 3.162277660168379256e+01
6.336746387476697237e+03 5.623413251903490817e+01
7.221430881187578052e+03 1.000000000000000000e+02
8.487630211338941081e+03 1.778279410038922776e+02
1.021515519867776493e+04 3.162277660168379612e+02
