# Temperature (K), Pressure (bars)
1.646720795479550134e+03 1.778279410038922901e-06
1.665227530254347585e+03 3.162277660168379191e-06
1.683734263548056788e+03 5.623413251903491208e-06
1.701183020461684009e+03 1.000000000000000082e-05
1.771139471614159675e+03 1.778279410038922901e-05
1.839968817731320996e+03 3.162277660168379530e-05
1.876124677181675906e+03 5.623413251903490700e-05
1.917273822793617455e+03 1.000000000000000048e-04
1.963701330268911761e+03 1.778279410038922698e-04
2.008469007053193536e+03 3.162277660168379394e-04
2.052736809470197841e+03 5.623413251903490971e-04
2.094481515602186846e+03 1.000000000000000021e-03
2.133426501704804195e+03 1.778279410038922752e-03
2.169888418512829958e+03 3.162277660168379394e-03
2.204727314087352624e+03 5.623413251903490971e-03
2.239401943994565954e+03 1.000000000000000021e-02
2.281206617344327242e+03 1.778279410038922925e-02
2.331128566018274796e+03 3.162277660168379134e-02
2.408746725790983419e+03 5.623413251903491145e-02
2.542670105237823918e+03 1.000000000000000056e-01
2.703986899657162667e+03 1.778279410038922925e-01
2.866877823146282481e+03 3.162277660168379412e-01
3.039468306690103873e+03 5.623413251903490728e-01
3.224076810204622234e+03 1.000000000000000000e+00
3.421050043896121679e+03 1.778279410038922759e+00
3.631357645708439122e+03 3.162277660168379523e+00
3.858181021642356427e+03 5.623413251903491172e+00
4.106510311022731912e+03 1.000000000000000000e+01
4.382550458353598515e+03 1.778279410038922848e+01
4.694001525662465610e+03 3.162277660168379256e+01
5.051268278193049809e+03 5.623413251903490817e+01
5.472351051677012947e+03 1.000000000000000000e+02
5.972855356158639552e+03 1.778279410038922776e+02
6.580829826144825347e+03 3.162277660168379612e+02
