# Temperature (K), Pressure (bars)
9.605897681854030452e+02 5.623413251903490700e-05
1.016364145356370727e+03 1.000000000000000048e-04
1.072138521056710943e+03 1.778279410038922698e-04
1.116677634360436059e+03 3.162277660168379394e-04
1.154620060171753948e+03 5.623413251903490971e-04
1.190135669838641888e+03 1.000000000000000021e-03
1.243995502807737466e+03 1.778279410038922752e-03
1.336618876472390866e+03 3.162277660168379394e-03
1.460234387959599644e+03 5.623413251903490971e-03
1.599598544379911800e+03 1.000000000000000021e-02
1.711736836356388494e+03 1.778279410038922925e-02
1.785302634518691548e+03 3.162277660168379134e-02
1.857823788005995993e+03 5.623413251903491145e-02
1.943323988422499042e+03 1.000000000000000056e-01
2.041436906756897997e+03 1.778279410038922925e-01
2.165544994207598847e+03 3.162277660168379412e-01
2.347674471405968234e+03 5.623413251903490728e-01
2.580682873402020050e+03 1.000000000000000000e+00
2.814868091821886992e+03 1.778279410038922759e+00
3.037790899761448600e+03 3.162277660168379523e+00
3.262756911093797498e+03 5.623413251903491172e+00
3.495513729847116792e+03 1.000000000000000000e+01
3.741775434565223804e+03 1.778279410038922848e+01
4.009241489842956071e+03 3.162277660168379256e+01
4.303451787275776951e+03 5.623413251903490817e+01
4.631438062686362173e+03 1.000000000000000000e+02
4.996489130096763802e+03 1.778279410038922776e+02
5.419453426770451188e+03 3.162277660168379612e+02
