# Temperature (K), Pressure (bars)
9.288465251587477951e+02 1.000000000000000021e-03
9.725585457462892691e+02 1.778279410038922752e-03
1.016270566635170439e+03 3.162277660168379394e-03
1.056281408724208632e+03 5.623413251903490971e-03
1.095735713515641464e+03 1.000000000000000021e-02
1.136592496211204207e+03 1.778279410038922925e-02
1.179604633310959571e+03 3.162277660168379134e-02
1.225615090186396174e+03 5.623413251903491145e-02
1.275192176636654722e+03 1.000000000000000056e-01
1.329224501693711318e+03 1.778279410038922925e-01
1.396960258778779462e+03 3.162277660168379412e-01
1.502345270024819456e+03 5.623413251903490728e-01
1.655160399843819960e+03 1.000000000000000000e+00
1.844842693642907761e+03 1.778279410038922759e+00
2.084719120749345620e+03 3.162277660168379523e+00
2.376601628834199346e+03 5.623413251903491172e+00
2.676493509362251643e+03 1.000000000000000000e+01
2.964706114282511408e+03 1.778279410038922848e+01
3.253490302175014676e+03 3.162277660168379256e+01
3.548220875724460711e+03 5.623413251903490817e+01
3.856820742868178513e+03 1.000000000000000000e+02
4.184279469213364791e+03 1.778279410038922776e+02
4.545458639477580618e+03 3.162277660168379612e+02
