# Temperature (K), Pressure (bars)
1.306523513298099033e+03 5.623413251903491208e-06
1.337286044382705995e+03 1.000000000000000082e-05
1.368264370331051396e+03 1.778279410038922901e-05
1.403437089020117128e+03 3.162277660168379530e-05
1.448786403921200417e+03 5.623413251903490700e-05
1.516057122201412994e+03 1.000000000000000048e-04
1.585937078772093400e+03 1.778279410038922698e-04
1.644197965149690617e+03 3.162277660168379394e-04
1.700626880107730813e+03 5.623413251903490971e-04
1.759605095867509135e+03 1.000000000000000021e-03
1.823190393145915777e+03 1.778279410038922752e-03
1.890428381201638558e+03 3.162277660168379394e-03
1.963691175713058328e+03 5.623413251903490971e-03
2.044796111631144413e+03 1.000000000000000021e-02
2.145391065753754901e+03 1.778279410038922925e-02
2.283915369378343712e+03 3.162277660168379134e-02
2.443457323372676910e+03 5.623413251903491145e-02
2.603489304701971832e+03 1.000000000000000056e-01
2.765914588067666955e+03 1.778279410038922925e-01
2.934105863275035517e+03 3.162277660168379412e-01
3.110688005275068917e+03 5.623413251903490728e-01
3.297110175981527391e+03 1.000000000000000000e+00
3.494617018044228644e+03 1.778279410038922759e+00
3.705953438951534736e+03 3.162277660168379523e+00
3.935550991146232263e+03 5.623413251903491172e+00
4.188904348097721595e+03 1.000000000000000000e+01
4.472643705240672716e+03 1.778279410038922848e+01
4.795488092399212292e+03 3.162277660168379256e+01
5.172539931874512149e+03 5.623413251903490817e+01
5.616738486899436793e+03 1.000000000000000000e+02
6.150692620847011312e+03 1.778279410038922776e+02
6.808834421662491877e+03 3.162277660168379612e+02
