# Temperature (K), Pressure (bars)
1.771210290373810267e+03 9.999999999999999547e-07
1.852482687106763251e+03 1.778279410038922901e-06
1.933755083839716008e+03 3.162277660168379191e-06
1.997565625539601569e+03 5.623413251903491208e-06
2.046357055228003901e+03 1.000000000000000082e-05
2.086764802132392560e+03 1.778279410038922901e-05
2.122481750349749746e+03 3.162277660168379530e-05
2.157104341145013677e+03 5.623413251903490700e-05
2.193011265483703028e+03 1.000000000000000048e-04
2.232299994071375295e+03 1.778279410038922698e-04
2.277276482176505397e+03 3.162277660168379394e-04
2.329994326367030226e+03 5.623413251903490971e-04
2.392101233315185709e+03 1.000000000000000021e-03
2.464240750575441780e+03 1.778279410038922752e-03
2.545767462062146024e+03 3.162277660168379394e-03
2.632277027177913169e+03 5.623413251903490971e-03
2.725813480091520432e+03 1.000000000000000021e-02
2.839164633631363358e+03 1.778279410038922925e-02
2.977350570453704677e+03 3.162277660168379134e-02
3.140720227286313730e+03 5.623413251903491145e-02
3.337276157047543165e+03 1.000000000000000056e-01
3.532042540894581634e+03 1.778279410038922925e-01
3.754480533690197717e+03 3.162277660168379412e-01
4.012392697189409319e+03 5.623413251903490728e-01
4.308192758414843411e+03 1.000000000000000000e+00
4.688340122538719697e+03 1.778279410038922759e+00
5.217106183974802661e+03 3.162277660168379523e+00
6.003516093854654173e+03 5.623413251903491172e+00
7.187646146918757950e+03 1.000000000000000000e+01
8.832640714594528617e+03 1.778279410038922848e+01
1.000000000000000000e+04 3.162277660168379256e+01
1.000000000000000000e+04 5.623413251903490817e+01
1.000000000000000000e+04 1.000000000000000000e+02
1.000000000000000000e+04 1.778279410038922776e+02
1.000000000000000000e+04 3.162277660168379612e+02
