# Temperature (K), Pressure (bars)
1.592943812391393749e+03 9.999999999999999547e-07
1.594407404463741841e+03 1.778279410038922901e-06
1.595870996541140357e+03 3.162277660168379191e-06
1.602172774094990928e+03 5.623413251903491208e-06
1.613755436707183890e+03 1.000000000000000082e-05
1.630366967767062533e+03 1.778279410038922901e-05
1.652378594870011057e+03 3.162277660168379530e-05
1.681660297663553138e+03 5.623413251903490700e-05
1.719167074990231640e+03 1.000000000000000048e-04
1.763490607269862267e+03 1.778279410038922698e-04
1.814798621384933085e+03 3.162277660168379394e-04
1.871462568181631241e+03 5.623413251903490971e-04
1.932309641175526849e+03 1.000000000000000021e-03
1.996785734888756224e+03 1.778279410038922752e-03
2.067197667492888286e+03 3.162277660168379394e-03
2.142355939785417831e+03 5.623413251903490971e-03
2.233599884587244560e+03 1.000000000000000021e-02
2.359396686018590117e+03 1.778279410038922925e-02
2.501047130665169789e+03 3.162277660168379134e-02
2.642501765843366229e+03 5.623413251903491145e-02
2.789658729239676177e+03 1.000000000000000056e-01
2.944750488920329190e+03 1.778279410038922925e-01
3.110003334831290431e+03 3.162277660168379412e-01
3.287566292026110659e+03 5.623413251903490728e-01
3.479083179097901848e+03 1.000000000000000000e+00
3.686128123719598079e+03 1.778279410038922759e+00
3.911636092444402038e+03 3.162277660168379523e+00
4.160629758773106914e+03 5.623413251903491172e+00
4.440123894198181006e+03 1.000000000000000000e+01
4.759596021478791045e+03 1.778279410038922848e+01
5.134013851087766852e+03 3.162277660168379256e+01
5.581135739673633907e+03 5.623413251903490817e+01
6.129058224061310284e+03 1.000000000000000000e+02
6.822657087732040964e+03 1.778279410038922776e+02
7.735844363732690908e+03 3.162277660168379612e+02
