# Temperature (K), Pressure (bars)
2.201340740379586805e+03 9.999999999999999547e-07
2.217883291378678678e+03 1.778279410038922901e-06
2.234425842377770550e+03 3.162277660168379191e-06
2.257754276210104763e+03 5.623413251903491208e-06
2.285108300650537331e+03 1.000000000000000082e-05
2.314742902536583188e+03 1.778279410038922901e-05
2.347788256541125520e+03 3.162277660168379530e-05
2.384500425462013027e+03 5.623413251903490700e-05
2.425199219742777132e+03 1.000000000000000048e-04
2.469891169613390048e+03 1.778279410038922698e-04
2.516855568095405033e+03 3.162277660168379394e-04
2.563599076741207227e+03 5.623413251903490971e-04
2.608079959181107824e+03 1.000000000000000021e-03
2.648432815887328616e+03 1.778279410038922752e-03
2.683038206819783682e+03 3.162277660168379394e-03
2.712502505536978333e+03 5.623413251903490971e-03
2.739755223255163855e+03 1.000000000000000021e-02
2.772759566844330038e+03 1.778279410038922925e-02
2.814817314095598249e+03 3.162277660168379134e-02
2.879479911176700170e+03 5.623413251903491145e-02
2.990016740491502787e+03 1.000000000000000056e-01
3.134138986732977173e+03 1.778279410038922925e-01
3.294509907693165133e+03 3.162277660168379412e-01
3.474459291583561480e+03 5.623413251903490728e-01
3.677057131855481202e+03 1.000000000000000000e+00
3.904669716173375946e+03 1.778279410038922759e+00
4.160475685485727809e+03 3.162277660168379523e+00
4.451029116383902874e+03 5.623413251903491172e+00
4.786840951032361772e+03 1.000000000000000000e+01
5.183736491015342835e+03 1.778279410038922848e+01
5.674663802321782896e+03 3.162277660168379256e+01
6.308049059322785979e+03 5.623413251903490817e+01
7.171060675460083985e+03 1.000000000000000000e+02
8.403704392050844035e+03 1.778279410038922776e+02
1.000000000000000000e+04 3.162277660168379612e+02
