# Temperature (K), Pressure (bars)
2.272607336862582997e+03 9.999999999999999547e-07
2.280660141599084454e+03 1.778279410038922901e-06
2.288712946335585002e+03 3.162277660168379191e-06
2.320396251612543892e+03 5.623413251903491208e-06
2.359435217806671517e+03 1.000000000000000082e-05
2.399039018211613893e+03 1.778279410038922901e-05
2.444985432399673755e+03 3.162277660168379530e-05
2.496264785263265821e+03 5.623413251903490700e-05
2.550937138282494743e+03 1.000000000000000048e-04
2.607184348168139877e+03 1.778279410038922698e-04
2.663207852972685487e+03 3.162277660168379394e-04
2.716446012716590758e+03 5.623413251903490971e-04
2.765138854098564025e+03 1.000000000000000021e-03
2.810329007303981143e+03 1.778279410038922752e-03
2.856980379774637186e+03 3.162277660168379394e-03
2.910182574692901198e+03 5.623413251903490971e-03
2.976011459975334674e+03 1.000000000000000021e-02
3.050707323266891763e+03 1.778279410038922925e-02
3.143182616555851382e+03 3.162277660168379134e-02
3.284412569046922272e+03 5.623413251903491145e-02
3.473329948838750624e+03 1.000000000000000056e-01
3.688132254223290147e+03 1.778279410038922925e-01
3.945590463763024218e+03 3.162277660168379412e-01
4.259113032180068330e+03 5.623413251903490728e-01
4.692387048181228238e+03 1.000000000000000000e+00
5.368126071881441021e+03 1.778279410038922759e+00
6.458646582249697531e+03 3.162277660168379523e+00
7.982417345028780801e+03 5.623413251903491172e+00
9.697301618655046695e+03 1.000000000000000000e+01
1.000000000000000000e+04 1.778279410038922848e+01
1.000000000000000000e+04 3.162277660168379256e+01
1.000000000000000000e+04 5.623413251903490817e+01
1.000000000000000000e+04 1.000000000000000000e+02
1.000000000000000000e+04 1.778279410038922776e+02
1.000000000000000000e+04 3.162277660168379612e+02
