# Temperature (K), Pressure (bars)
1.873998659154814959e+03 1.778279410038922901e-05
1.882286664398364337e+03 3.162277660168379530e-05
1.890574673038737274e+03 5.623413251903490700e-05
1.907755611920029878e+03 1.000000000000000048e-04
1.932992090876512293e+03 1.778279410038922698e-04
1.964002573497792127e+03 3.162277660168379394e-04
2.002273176296227803e+03 5.623413251903490971e-04
2.047100351046598917e+03 1.000000000000000021e-03
2.093863289059881481e+03 1.778279410038922752e-03
2.138958098881990736e+03 3.162277660168379394e-03
2.180724402092314449e+03 5.623413251903490971e-03
2.217602028316559426e+03 1.000000000000000021e-02
2.249371167504585628e+03 1.778279410038922925e-02
2.278113593920601943e+03 3.162277660168379134e-02
2.308913575141724777e+03 5.623413251903491145e-02
2.348676366318637520e+03 1.000000000000000056e-01
2.407874091640935148e+03 1.778279410038922925e-01
2.482165046354198239e+03 3.162277660168379412e-01
2.599549382626551505e+03 5.623413251903490728e-01
2.794007858613355893e+03 1.000000000000000000e+00
3.011431393784672309e+03 1.778279410038922759e+00
3.219472867755992866e+03 3.162277660168379523e+00
3.437391268848938125e+03 5.623413251903491172e+00
3.669620256286708354e+03 1.000000000000000000e+01
3.919875815007197616e+03 1.778279410038922848e+01
4.194427376408874807e+03 3.162277660168379256e+01
4.499984940260773328e+03 5.623413251903490817e+01
4.844480105692706275e+03 1.000000000000000000e+02
5.231665759094694295e+03 1.778279410038922776e+02
5.685964452588418681e+03 3.162277660168379612e+02
