# Temperature (K), Pressure (bars)
1.999580774191975479e+03 9.999999999999999547e-07
2.026987697531390950e+03 1.778279410038922901e-06
2.054394620877539637e+03 3.162277660168379191e-06
2.086928707090064563e+03 5.623413251903491208e-06
2.125708841924203625e+03 1.000000000000000082e-05
2.169441076279352728e+03 1.778279410038922901e-05
2.214621729156833680e+03 3.162277660168379530e-05
2.258741774405494652e+03 5.623413251903490700e-05
2.301160674356882737e+03 1.000000000000000048e-04
2.341065848890366397e+03 1.778279410038922698e-04
2.378222685411399652e+03 3.162277660168379394e-04
2.413911704126104723e+03 5.623413251903490971e-04
2.449954372975658771e+03 1.000000000000000021e-03
2.488614102056256343e+03 1.778279410038922752e-03
2.529908851071430036e+03 3.162277660168379394e-03
2.575260440698087223e+03 5.623413251903490971e-03
2.619041973610172136e+03 1.000000000000000021e-02
2.680594853761463582e+03 1.778279410038922925e-02
2.793538583811752687e+03 3.162277660168379134e-02
2.934939835282214517e+03 5.623413251903491145e-02
3.085624130864999188e+03 1.000000000000000056e-01
3.256420040881580007e+03 1.778279410038922925e-01
3.448576534375818028e+03 3.162277660168379412e-01
3.662013571261413745e+03 5.623413251903490728e-01
3.898688446669642872e+03 1.000000000000000000e+00
4.165073276792807519e+03 1.778279410038922759e+00
4.473802022766691152e+03 3.162277660168379523e+00
4.832645979972899113e+03 5.623413251903491172e+00
5.286946210027619600e+03 1.000000000000000000e+01
5.899754645163649911e+03 1.778279410038922848e+01
6.794549014902279851e+03 3.162277660168379256e+01
8.130668539193556171e+03 5.623413251903490817e+01
9.919169606237051994e+03 1.000000000000000000e+02
1.207827346444798604e+04 1.778279410038922776e+02
1.465306388682873148e+04 3.162277660168379612e+02
