# Temperature (K), Pressure (bars)
1.189348046568410609e+03 1.000000000000000048e-04
1.243770890213498660e+03 1.778279410038922698e-04
1.298193737226903977e+03 3.162277660168379394e-04
1.348354624003439312e+03 5.623413251903490971e-04
1.395387906461682860e+03 1.000000000000000021e-03
1.449504900363961269e+03 1.778279410038922752e-03
1.528329915562958831e+03 3.162277660168379394e-03
1.608330537932701645e+03 5.623413251903490971e-03
1.667543731453383998e+03 1.000000000000000021e-02
1.718041852039432342e+03 1.778279410038922925e-02
1.768696802824679253e+03 3.162277660168379134e-02
1.823703478137723550e+03 5.623413251903491145e-02
1.885100969777041428e+03 1.000000000000000056e-01
1.954188613867934237e+03 1.778279410038922925e-01
2.042135430445829343e+03 3.162277660168379412e-01
2.147965179094475843e+03 5.623413251903490728e-01
2.298542951914857895e+03 1.000000000000000000e+00
2.530316412527010471e+03 1.778279410038922759e+00
2.788252918287659213e+03 3.162277660168379523e+00
3.030781813854688153e+03 5.623413251903491172e+00
3.273924218758985717e+03 1.000000000000000000e+01
3.524627218471291144e+03 1.778279410038922848e+01
3.790352403472181322e+03 3.162277660168379256e+01
4.077353041963788201e+03 5.623413251903490817e+01
4.392466594544456711e+03 1.000000000000000000e+02
4.738785564395302572e+03 1.778279410038922776e+02
5.134818885984052031e+03 3.162277660168379612e+02
