# Temperature (K), Pressure (bars)
1.294176567450545235e+03 3.162277660168379530e-05
1.322944949178838215e+03 5.623413251903490700e-05
1.351713333102374463e+03 1.000000000000000048e-04
1.385109625809675435e+03 1.778279410038922698e-04
1.424801216614593841e+03 3.162277660168379394e-04
1.473741319969269398e+03 5.623413251903490971e-04
1.540735080363301449e+03 1.000000000000000021e-03
1.616801386849655046e+03 1.778279410038922752e-03
1.685904540616608074e+03 3.162277660168379394e-03
1.750324201092239718e+03 5.623413251903490971e-03
1.818126890056475304e+03 1.000000000000000021e-02
1.890221579882041851e+03 1.778279410038922925e-02
1.971413765756169141e+03 3.162277660168379134e-02
2.064205824739363834e+03 5.623413251903491145e-02
2.184574719440852277e+03 1.000000000000000056e-01
2.355667558221778108e+03 1.778279410038922925e-01
2.551433722771423618e+03 3.162277660168379412e-01
2.743492572628535072e+03 5.623413251903490728e-01
2.935662462163430973e+03 1.000000000000000000e+00
3.132955691738429778e+03 1.778279410038922759e+00
3.338820110893608216e+03 3.162277660168379523e+00
3.556163143638417296e+03 5.623413251903491172e+00
3.788855480553197140e+03 1.000000000000000000e+01
4.041995201397488927e+03 1.778279410038922848e+01
4.323225738110792918e+03 3.162277660168379256e+01
4.638926272877544761e+03 5.623413251903490817e+01
4.997744718784598263e+03 1.000000000000000000e+02
5.403746846080715841e+03 1.778279410038922776e+02
5.885092330525122634e+03 3.162277660168379612e+02
