# Temperature (K), Pressure (bars)
7.346942423370074948e+02 1.000000000000000048e-04
7.798041736789232345e+02 1.778279410038922698e-04
8.249141060189649579e+02 3.162277660168379394e-04
8.689167185313772279e+02 5.623413251903490971e-04
9.129324715585971717e+02 1.000000000000000021e-03
9.580586289494958692e+02 1.778279410038922752e-03
1.005798332999914010e+03 3.162277660168379394e-03
1.059176281462611996e+03 5.623413251903490971e-03
1.121085981846760205e+03 1.000000000000000021e-02
1.196937164124090941e+03 1.778279410038922925e-02
1.291134344332911724e+03 3.162277660168379134e-02
1.427978553411416897e+03 5.623413251903491145e-02
1.636154822556874478e+03 1.000000000000000056e-01
1.890351484875305005e+03 1.778279410038922925e-01
2.151168054104770363e+03 3.162277660168379412e-01
2.401953658893221473e+03 5.623413251903490728e-01
2.636162676758317502e+03 1.000000000000000000e+00
2.857827017276714741e+03 1.778279410038922759e+00
3.074711485982873000e+03 3.162277660168379523e+00
3.294405352058059179e+03 5.623413251903491172e+00
3.523410428611713996e+03 1.000000000000000000e+01
3.767619441271142932e+03 1.778279410038922848e+01
4.035213185866171898e+03 3.162277660168379256e+01
4.330384034891256306e+03 5.623413251903490817e+01
4.660090441434412242e+03 1.000000000000000000e+02
5.027583550917848697e+03 1.778279410038922776e+02
5.454263049810284429e+03 3.162277660168379612e+02
