# Temperature (K), Pressure (bars)
2.281395409950366684e+03 9.999999999999999547e-07
2.308861211574291247e+03 1.778279410038922901e-06
2.336327013198215809e+03 3.162277660168379191e-06
2.364895275855513773e+03 5.623413251903491208e-06
2.395985264604771146e+03 1.000000000000000082e-05
2.429099507731355061e+03 1.778279410038922901e-05
2.464069806348310522e+03 3.162277660168379530e-05
2.500509394566514402e+03 5.623413251903490700e-05
2.536798488187590465e+03 1.000000000000000048e-04
2.570646667305097708e+03 1.778279410038922698e-04
2.598192450339966399e+03 3.162277660168379394e-04
2.616881315672687379e+03 5.623413251903490971e-04
2.631659928863083678e+03 1.000000000000000021e-03
2.653110439146200861e+03 1.778279410038922752e-03
2.689164061787559149e+03 3.162277660168379394e-03
2.740575003073999596e+03 5.623413251903490971e-03
2.806534040947385165e+03 1.000000000000000021e-02
2.880515549390555407e+03 1.778279410038922925e-02
2.965658154585646571e+03 3.162277660168379134e-02
3.082602476102232686e+03 5.623413251903491145e-02
3.230870086385999002e+03 1.000000000000000056e-01
3.402239164515496213e+03 1.778279410038922925e-01
3.602292237367550115e+03 3.162277660168379412e-01
3.837668492628914464e+03 5.623413251903490728e-01
4.119624863297792217e+03 1.000000000000000000e+00
4.422304156745623004e+03 1.778279410038922759e+00
4.802873976850385588e+03 3.162277660168379523e+00
5.316448913987776905e+03 5.623413251903491172e+00
6.081335076367327929e+03 1.000000000000000000e+01
7.275060883759651006e+03 1.778279410038922848e+01
8.921161678838225271e+03 3.162277660168379256e+01
1.000000000000000000e+04 5.623413251903490817e+01
1.000000000000000000e+04 1.000000000000000000e+02
1.000000000000000000e+04 1.778279410038922776e+02
1.000000000000000000e+04 3.162277660168379612e+02
