# Temperature (K), Pressure (bars)
1.772754620324577445e+03 9.999999999999999547e-07
1.788992456033681719e+03 1.778279410038922901e-06
1.805230291742785994e+03 3.162277660168379191e-06
1.825959958904624273e+03 5.623413251903491208e-06
1.850476470779757847e+03 1.000000000000000082e-05
1.880017111876434456e+03 1.778279410038922901e-05
1.917625256624925214e+03 3.162277660168379530e-05
1.962553658105823160e+03 5.623413251903490700e-05
2.014131454268962216e+03 1.000000000000000048e-04
2.071504221135253829e+03 1.778279410038922698e-04
2.133171262168342764e+03 3.162277660168379394e-04
2.198596820041927913e+03 5.623413251903490971e-04
2.270117916609157419e+03 1.000000000000000021e-03
2.354253802790995906e+03 1.778279410038922752e-03
2.452819730531141886e+03 3.162277660168379394e-03
2.561801787033422897e+03 5.623413251903490971e-03
2.679587652517245260e+03 1.000000000000000021e-02
2.807221815156202865e+03 1.778279410038922925e-02
2.946179826421894177e+03 3.162277660168379134e-02
3.098551432045498586e+03 5.623413251903491145e-02
3.267487129837225439e+03 1.000000000000000056e-01
3.459632258809976520e+03 1.778279410038922925e-01
3.659240183714875002e+03 3.162277660168379412e-01
3.889090327436480038e+03 5.623413251903490728e-01
4.158416005904565282e+03 1.000000000000000000e+00
4.472542507198101703e+03 1.778279410038922759e+00
4.873879717411919046e+03 3.162277660168379523e+00
5.428686406691742377e+03 5.623413251903491172e+00
6.257682997206924483e+03 1.000000000000000000e+01
7.504140766715976497e+03 1.778279410038922848e+01
9.204708933434802020e+03 3.162277660168379256e+01
1.000000000000000000e+04 5.623413251903490817e+01
1.000000000000000000e+04 1.000000000000000000e+02
1.000000000000000000e+04 1.778279410038922776e+02
1.000000000000000000e+04 3.162277660168379612e+02
