# Temperature (K), Pressure (bars)
1.713292697742461996e+03 5.623413251903491208e-06
1.722363642152355851e+03 1.000000000000000082e-05
1.731434590358654987e+03 1.778279410038922901e-05
1.747142866453463284e+03 3.162277660168379530e-05
1.770331457006337587e+03 5.623413251903490700e-05
1.802502682040801346e+03 1.000000000000000048e-04
1.840619974110737076e+03 1.778279410038922698e-04
1.879934651708948422e+03 3.162277660168379394e-04
1.920003838349979560e+03 5.623413251903490971e-04
1.959267989043400121e+03 1.000000000000000021e-03
1.998040377837580536e+03 1.778279410038922752e-03
2.038663972978464244e+03 3.162277660168379394e-03
2.081911842608665665e+03 5.623413251903490971e-03
2.128187192155682624e+03 1.000000000000000021e-02
2.178985827686370612e+03 1.778279410038922925e-02
2.235452165100788989e+03 3.162277660168379134e-02
2.304315072505592980e+03 5.623413251903491145e-02
2.388923557898563558e+03 1.000000000000000056e-01
2.507819756037599745e+03 1.778279410038922925e-01
2.678351703196307426e+03 3.162277660168379412e-01
2.865013023621541379e+03 5.623413251903490728e-01
3.047950774490162075e+03 1.000000000000000000e+00
3.240191158412992991e+03 1.778279410038922759e+00
3.444878519012856486e+03 3.162277660168379523e+00
3.664148211745789013e+03 5.623413251903491172e+00
3.901265585976173952e+03 1.000000000000000000e+01
4.161112057866102987e+03 1.778279410038922848e+01
4.449941570259981745e+03 3.162277660168379256e+01
4.775902348808168426e+03 5.623413251903490817e+01
5.153638986762657623e+03 1.000000000000000000e+02
5.593094760471693007e+03 1.778279410038922776e+02
6.112834498767415425e+03 3.162277660168379612e+02
