# Temperature (K), Pressure (bars)
1.158142976191685648e+03 9.999999999999999547e-07
1.192641974124341004e+03 1.778279410038922901e-06
1.227140972059942669e+03 3.162277660168379191e-06
1.265756238202571240e+03 5.623413251903491208e-06
1.310422572203631262e+03 1.000000000000000082e-05
1.360223721074270316e+03 1.778279410038922901e-05
1.416684262538617077e+03 3.162277660168379530e-05
1.478242119909654321e+03 5.623413251903490700e-05
1.546681780287402262e+03 1.000000000000000048e-04
1.628608924654559360e+03 1.778279410038922698e-04
1.717830496215994344e+03 3.162277660168379394e-04
1.808955579388255501e+03 5.623413251903490971e-04
1.907157785888136459e+03 1.000000000000000021e-03
2.023908837104124132e+03 1.778279410038922752e-03
2.164557054897189573e+03 3.162277660168379394e-03
2.315586188478890108e+03 5.623413251903490971e-03
2.467293256190434477e+03 1.000000000000000021e-02
2.621490942650674697e+03 1.778279410038922925e-02
2.780335459313670071e+03 3.162277660168379134e-02
2.946031300152096719e+03 5.623413251903491145e-02
3.120802862261464725e+03 1.000000000000000056e-01
3.306408295639326752e+03 1.778279410038922925e-01
3.504668305461459568e+03 3.162277660168379412e-01
3.719180348183766910e+03 5.623413251903490728e-01
3.956806303343992113e+03 1.000000000000000000e+00
4.227625102258519291e+03 1.778279410038922759e+00
4.536620280536296377e+03 3.162277660168379523e+00
4.916958567277915790e+03 5.623413251903491172e+00
5.410216836263837649e+03 1.000000000000000000e+01
6.097781926966362334e+03 1.778279410038922848e+01
7.126923483872147699e+03 3.162277660168379256e+01
8.634773436055038474e+03 5.623413251903490817e+01
1.054439768980227745e+04 1.000000000000000000e+02
1.283804203074779252e+04 1.778279410038922776e+02
1.557409312860504724e+04 3.162277660168379612e+02
