# Temperature (K), Pressure (bars)
2.209357065090738615e+03 9.999999999999999547e-07
2.227065119898310058e+03 1.778279410038922901e-06
2.244773174705881502e+03 3.162277660168379191e-06
2.268097743975449248e+03 5.623413251903491208e-06
2.296618343492407348e+03 1.000000000000000082e-05
2.328309805418550695e+03 1.778279410038922901e-05
2.363752835582743955e+03 3.162277660168379530e-05
2.403649140043822626e+03 5.623413251903490700e-05
2.448820446362886742e+03 1.000000000000000048e-04
2.499235407906741784e+03 1.778279410038922698e-04
2.553395681762976437e+03 3.162277660168379394e-04
2.609917954049321906e+03 5.623413251903490971e-04
2.666713272135167699e+03 1.000000000000000021e-03
2.721097868328396544e+03 1.778279410038922752e-03
2.769842565594893586e+03 3.162277660168379394e-03
2.811021492305764696e+03 5.623413251903490971e-03
2.846083071467082846e+03 1.000000000000000021e-02
2.884856650310722216e+03 1.778279410038922925e-02
2.932181057329287796e+03 3.162277660168379134e-02
3.001349072708914264e+03 5.623413251903491145e-02
3.117436808804958673e+03 1.000000000000000056e-01
3.269608242761255042e+03 1.778279410038922925e-01
3.441646010048810240e+03 3.162277660168379412e-01
3.638873999890293817e+03 5.623413251903490728e-01
3.865745846049672764e+03 1.000000000000000000e+00
4.126799669634080601e+03 1.778279410038922759e+00
4.430363211829931970e+03 3.162277660168379523e+00
4.774773175626135526e+03 5.623413251903491172e+00
5.203348247664345763e+03 1.000000000000000000e+01
5.766400699496511152e+03 1.778279410038922848e+01
6.561730425721569191e+03 3.162277660168379256e+01
7.749085386255085723e+03 5.623413251903490817e+01
9.414561427497883415e+03 1.000000000000000000e+02
1.000000000000000000e+04 1.778279410038922776e+02
1.000000000000000000e+04 3.162277660168379612e+02
