# Temperature (K), Pressure (bars)
7.473513315684224381e+02 3.162277660168379394e-04
7.867357547051637994e+02 5.623413251903490971e-04
8.261201787588885281e+02 1.000000000000000021e-03
8.647532274002227268e+02 1.778279410038922752e-03
9.040281279406866588e+02 3.162277660168379394e-03
9.445395799781621236e+02 5.623413251903490971e-03
9.870384355837778685e+02 1.000000000000000021e-02
1.033997570344711676e+03 1.778279410038922925e-02
1.089714497487474091e+03 3.162277660168379134e-02
1.160075894373289429e+03 5.623413251903491145e-02
1.252604948003511254e+03 1.000000000000000056e-01
1.377850150835811519e+03 1.778279410038922925e-01
1.562484025259865348e+03 3.162277660168379412e-01
1.808645948112417045e+03 5.623413251903490728e-01
2.076609796294849730e+03 1.000000000000000000e+00
2.348465698817548400e+03 1.778279410038922759e+00
2.617523586921005517e+03 3.162277660168379523e+00
2.875600422973717286e+03 5.623413251903491172e+00
3.128335739752113113e+03 1.000000000000000000e+01
3.383445188761959798e+03 1.778279410038922848e+01
3.650659619717040187e+03 3.162277660168379256e+01
3.935575293002793387e+03 5.623413251903490817e+01
4.245007727884015367e+03 1.000000000000000000e+02
4.582435257158512286e+03 1.778279410038922776e+02
4.964423517555130275e+03 3.162277660168379612e+02
