# Temperature (K), Pressure (bars)
9.543459757057940806e+03 5.623413251903491208e-06
1.101669220320504610e+04 1.000000000000000082e-05
1.262519102238578853e+04 1.778279410038922901e-05
1.409407799572664044e+04 3.162277660168379530e-05
1.537529795740329246e+04 5.623413251903490700e-05
1.648324357080320624e+04 1.000000000000000048e-04
1.746319916777532490e+04 1.778279410038922698e-04
1.836699722914720769e+04 3.162277660168379394e-04
1.923645520646801015e+04 5.623413251903490971e-04
2.010437123663459352e+04 1.000000000000000021e-03
2.099821658332825609e+04 1.778279410038922752e-03
2.194050331000780352e+04 3.162277660168379394e-03
2.295567059441732272e+04 5.623413251903490971e-03
2.407209866530026193e+04 1.000000000000000021e-02
2.532363130929106774e+04 1.778279410038922925e-02
2.675409811964879191e+04 3.162277660168379134e-02
2.842273019388123794e+04 5.623413251903491145e-02
3.040561926686463994e+04 1.000000000000000056e-01
3.280270938990967989e+04 1.778279410038922925e-01
3.574478505658658833e+04 3.162277660168379412e-01
3.940291101658799016e+04 5.623413251903490728e-01
4.399311582069069118e+04 1.000000000000000000e+00
4.979393825885633851e+04 1.778279410038922759e+00
5.715083184141699167e+04 3.162277660168379523e+00
6.649966039342747536e+04 5.623413251903491172e+00
7.837191279249188665e+04 1.000000000000000000e+01
9.341938091678562341e+04 1.778279410038922848e+01
1.124199265883991320e+05 3.162277660168379256e+01
1.362479651293158531e+05 5.623413251903490817e+01
1.658012508019364323e+05 1.000000000000000000e+02
2.018648819608121121e+05 1.778279410038922776e+02
2.449056246039945981e+05 3.162277660168379612e+02
