# Temperature (K), Pressure (bars)
9.221048305908717566e+02 1.000000000000000048e-04
9.849476147288494303e+02 1.778279410038922698e-04
1.047790399983413181e+03 3.162277660168379394e-04
1.103419952114771377e+03 5.623413251903490971e-04
1.152012290446715269e+03 1.000000000000000021e-03
1.198921629554435867e+03 1.778279410038922752e-03
1.246470806305406086e+03 3.162277660168379394e-03
1.288831108738361991e+03 5.623413251903490971e-03
1.323351717661255407e+03 1.000000000000000021e-02
1.358342598526601023e+03 1.778279410038922925e-02
1.397661208939018252e+03 3.162277660168379134e-02
1.441554983694681823e+03 5.623413251903491145e-02
1.516267018624593675e+03 1.000000000000000056e-01
1.653341019461285669e+03 1.778279410038922925e-01
1.827193624703679234e+03 3.162277660168379412e-01
2.019290775903562917e+03 5.623413251903490728e-01
2.256270328419499492e+03 1.000000000000000000e+00
2.516679613223610886e+03 1.778279410038922759e+00
2.767817435140455018e+03 3.162277660168379523e+00
3.012437173575051929e+03 5.623413251903491172e+00
3.256492087093537975e+03 1.000000000000000000e+01
3.507000867748471137e+03 1.778279410038922848e+01
3.772566084492513255e+03 3.162277660168379256e+01
4.059086112964378117e+03 5.623413251903490817e+01
4.373308455035827137e+03 1.000000000000000000e+02
4.718302414437682273e+03 1.778279410038922776e+02
5.112178259791313394e+03 3.162277660168379612e+02
