# Temperature (K), Pressure (bars)
8.755458136063955408e+02 3.162277660168379394e-04
9.277603365284406891e+02 5.623413251903490971e-04
9.799748607229485060e+02 1.000000000000000021e-03
1.031268092758220746e+03 1.778279410038922752e-03
1.082250026529297202e+03 3.162277660168379394e-03
1.134911334967775474e+03 5.623413251903490971e-03
1.192502747139499206e+03 1.000000000000000021e-02
1.258131440465030209e+03 1.778279410038922925e-02
1.339719597324494998e+03 3.162277660168379134e-02
1.440247535203970301e+03 5.623413251903491145e-02
1.589811992695410709e+03 1.000000000000000056e-01
1.820960303066786992e+03 1.778279410038922925e-01
2.087074206656156548e+03 3.162277660168379412e-01
2.342477766709489060e+03 5.623413251903490728e-01
2.584266820294224999e+03 1.000000000000000000e+00
2.813011199907846731e+03 1.778279410038922759e+00
3.035323647610555781e+03 3.162277660168379523e+00
3.258536996592089963e+03 5.623413251903491172e+00
3.489390054083399718e+03 1.000000000000000000e+01
3.734046676539130658e+03 1.778279410038922848e+01
4.000707691921355490e+03 3.162277660168379256e+01
4.293907920632994319e+03 5.623413251903490817e+01
4.620459653459200126e+03 1.000000000000000000e+02
4.983859491237367365e+03 1.778279410038922776e+02
5.404131527783441015e+03 3.162277660168379612e+02
