# Temperature (K), Pressure (bars)
2.226973743953238682e+03 9.999999999999999547e-07
2.239202971836818961e+03 1.778279410038922901e-06
2.251432199720398785e+03 3.162277660168379191e-06
2.273941481601911619e+03 5.623413251903491208e-06
2.301167130928658025e+03 1.000000000000000082e-05
2.328578263442675507e+03 1.778279410038922901e-05
2.355211297016478056e+03 3.162277660168379530e-05
2.378560317555519759e+03 5.623413251903490700e-05
2.396545307472541481e+03 1.000000000000000048e-04
2.409678351886368546e+03 1.778279410038922698e-04
2.422256079713949475e+03 3.162277660168379394e-04
2.439347445653980685e+03 5.623413251903490971e-04
2.463796035971176934e+03 1.000000000000000021e-03
2.497251949665496340e+03 1.778279410038922752e-03
2.538296669498191477e+03 3.162277660168379394e-03
2.586449038102861323e+03 5.623413251903490971e-03
2.633497835374723763e+03 1.000000000000000021e-02
2.694633071725609625e+03 1.778279410038922925e-02
2.802677047775514438e+03 3.162277660168379134e-02
2.937520363173345231e+03 5.623413251903491145e-02
3.078849149733348895e+03 1.000000000000000056e-01
3.236077867830391824e+03 1.778279410038922925e-01
3.413463959910292033e+03 3.162277660168379412e-01
3.614631460259809955e+03 5.623413251903490728e-01
3.841977144852209676e+03 1.000000000000000000e+00
4.098830250010500095e+03 1.778279410038922759e+00
4.393409958975226800e+03 3.162277660168379523e+00
4.727145739972114825e+03 5.623413251903491172e+00
5.138355080920752698e+03 1.000000000000000000e+01
5.671045951050459735e+03 1.778279410038922848e+01
6.410045225813876641e+03 3.162277660168379256e+01
7.501282558226579567e+03 5.623413251903490817e+01
9.065788976339532383e+03 1.000000000000000000e+02
1.000000000000000000e+04 1.778279410038922776e+02
1.000000000000000000e+04 3.162277660168379612e+02
