# Temperature (K), Pressure (bars)
2.331149166897419036e+03 9.999999999999999547e-07
2.331872464426779516e+03 1.778279410038922901e-06
2.332595761956139540e+03 3.162277660168379191e-06
2.354932388807203552e+03 5.623413251903491208e-06
2.384026430637507474e+03 1.000000000000000082e-05
2.414074236768404262e+03 1.778279410038922901e-05
2.447577192449798076e+03 3.162277660168379530e-05
2.482609068363180540e+03 5.623413251903490700e-05
2.518749846938199425e+03 1.000000000000000048e-04
2.554844723123543190e+03 1.778279410038922698e-04
2.589912765541783756e+03 3.162277660168379394e-04
2.622398784552355210e+03 5.623413251903490971e-04
2.650375925473018015e+03 1.000000000000000021e-03
2.675729794167265027e+03 1.778279410038922752e-03
2.704833242176882322e+03 3.162277660168379394e-03
2.745359898283549683e+03 5.623413251903490971e-03
2.796860342046297774e+03 1.000000000000000021e-02
2.856070032051541602e+03 1.778279410038922925e-02
2.907182065584423981e+03 3.162277660168379134e-02
2.973658822989248620e+03 5.623413251903491145e-02
3.106799536358048954e+03 1.000000000000000056e-01
3.275011407548169245e+03 1.778279410038922925e-01
3.450321587245759019e+03 3.162277660168379412e-01
3.650523067989731771e+03 5.623413251903490728e-01
3.880880686253433396e+03 1.000000000000000000e+00
4.146072685970183556e+03 1.778279410038922759e+00
4.455210584368665877e+03 3.162277660168379523e+00
4.807656245356659383e+03 5.623413251903491172e+00
5.250942184563278715e+03 1.000000000000000000e+01
5.843728939091201937e+03 1.778279410038922848e+01
6.700520069526653060e+03 3.162277660168379256e+01
7.980824865065403174e+03 5.623413251903490817e+01
9.725837474096966616e+03 1.000000000000000000e+02
1.000000000000000000e+04 1.778279410038922776e+02
1.000000000000000000e+04 3.162277660168379612e+02
