# Temperature (K), Pressure (bars)
8.200084589662463941e+02 3.162277660168379394e-04
8.552643256496871800e+02 5.623413251903490971e-04
8.905201934548521194e+02 1.000000000000000021e-03
9.265779514907284238e+02 1.778279410038922752e-03
9.638715463201501734e+02 3.162277660168379394e-03
1.002868564625364684e+03 5.623413251903490971e-03
1.042879282105574021e+03 1.000000000000000021e-02
1.084333916869390350e+03 1.778279410038922925e-02
1.129622547317982480e+03 3.162277660168379134e-02
1.182680234597368099e+03 5.623413251903491145e-02
1.247440834549724286e+03 1.000000000000000056e-01
1.334969253430857862e+03 1.778279410038922925e-01
1.488054772062597976e+03 3.162277660168379412e-01
1.724627564101430153e+03 5.623413251903490728e-01
1.997433957434097010e+03 1.000000000000000000e+00
2.274219612465738464e+03 1.778279410038922759e+00
2.548519390416638998e+03 3.162277660168379523e+00
2.813449398747624855e+03 5.623413251903491172e+00
3.071647081000430262e+03 1.000000000000000000e+01
3.330326798188096745e+03 1.778279410038922848e+01
3.599373785895122637e+03 3.162277660168379256e+01
3.884760809222026637e+03 5.623413251903490817e+01
4.193488597398403726e+03 1.000000000000000000e+02
4.529243993758783290e+03 1.778279410038922776e+02
4.908300024699354253e+03 3.162277660168379612e+02
