# Temperature (K), Pressure (bars)
1.685149804361562701e+03 9.999999999999999547e-07
1.717841119041133879e+03 1.778279410038922901e-06
1.750532433720704603e+03 3.162277660168379191e-06
1.786309803084334362e+03 5.623413251903491208e-06
1.828100341905572805e+03 1.000000000000000082e-05
1.873926677324116554e+03 1.778279410038922901e-05
1.922569887280576268e+03 3.162277660168379530e-05
1.973783725967538885e+03 5.623413251903490700e-05
2.028132157900802667e+03 1.000000000000000048e-04
2.085967171001478164e+03 1.778279410038922698e-04
2.147549162516698289e+03 3.162277660168379394e-04
2.214292666427624226e+03 5.623413251903490971e-04
2.291244780018470919e+03 1.000000000000000021e-03
2.384451376914249067e+03 1.778279410038922752e-03
2.491379170614052782e+03 3.162277660168379394e-03
2.607749133170394543e+03 5.623413251903490971e-03
2.733561198305168091e+03 1.000000000000000021e-02
2.869881367486864292e+03 1.778279410038922925e-02
3.018946244240655687e+03 3.162277660168379134e-02
3.184809188096291564e+03 5.623413251903491145e-02
3.376768586430993764e+03 1.000000000000000056e-01
3.573269244086548952e+03 1.778279410038922925e-01
3.801991471803497916e+03 3.162277660168379412e-01
4.074296648322082092e+03 5.623413251903490728e-01
4.395147819058521236e+03 1.000000000000000000e+00
4.826553755613098474e+03 1.778279410038922759e+00
5.471291804578272604e+03 3.162277660168379523e+00
6.481434323635182409e+03 5.623413251903491172e+00
7.964006154690945550e+03 1.000000000000000000e+01
9.727071554946878678e+03 1.778279410038922848e+01
1.000000000000000000e+04 3.162277660168379256e+01
1.000000000000000000e+04 5.623413251903490817e+01
1.000000000000000000e+04 1.000000000000000000e+02
1.000000000000000000e+04 1.778279410038922776e+02
1.000000000000000000e+04 3.162277660168379612e+02
