# Temperature (K), Pressure (bars)
2.441544186011589773e+03 9.999999999999999547e-07
2.455514826497355898e+03 1.778279410038922901e-06
2.469485466983122933e+03 3.162277660168379191e-06
2.491849892855915641e+03 5.623413251903491208e-06
2.521181189054497736e+03 1.000000000000000082e-05
2.552811149097447014e+03 1.778279410038922901e-05
2.586116342303990223e+03 3.162277660168379530e-05
2.621317019096718013e+03 5.623413251903490700e-05
2.658082644298971900e+03 1.000000000000000048e-04
2.696097161336940189e+03 1.778279410038922698e-04
2.734826502299565618e+03 3.162277660168379394e-04
2.773113383765655271e+03 5.623413251903490971e-04
2.808401852619701458e+03 1.000000000000000021e-03
2.837295298677843675e+03 1.778279410038922752e-03
2.858820287377822751e+03 3.162277660168379394e-03
2.878525912122737282e+03 5.623413251903490971e-03
2.905219613230711730e+03 1.000000000000000021e-02
2.947414064664210855e+03 1.778279410038922925e-02
3.007223751234985230e+03 3.162277660168379134e-02
3.091438241034545172e+03 5.623413251903491145e-02
3.214759382993785493e+03 1.000000000000000056e-01
3.372022241334431783e+03 1.778279410038922925e-01
3.553640311099296468e+03 3.162277660168379412e-01
3.764673556897821982e+03 5.623413251903490728e-01
4.013860707019272468e+03 1.000000000000000000e+00
4.313940493639925080e+03 1.778279410038922759e+00
4.651060699166608174e+03 3.162277660168379523e+00
5.080637073517075805e+03 5.623413251903491172e+00
5.668711782005239911e+03 1.000000000000000000e+01
6.546050195405576233e+03 1.778279410038922848e+01
7.879910488550527589e+03 3.162277660168379256e+01
9.645945396177778093e+03 5.623413251903490817e+01
1.175676928400104407e+04 1.000000000000000000e+02
1.431464394175435882e+04 1.778279410038922776e+02
1.736560153681982774e+04 3.162277660168379612e+02
