# Temperature (K), Pressure (bars)
9.238060291697012190e+02 5.623413251903490971e-04
9.701596682565400442e+02 1.000000000000000021e-03
1.016513308960952600e+03 1.778279410038922752e-03
1.063215847819714327e+03 3.162277660168379394e-03
1.110687757126296901e+03 5.623413251903490971e-03
1.158988213864349291e+03 1.000000000000000021e-02
1.209537192831074208e+03 1.778279410038922925e-02
1.264366326989215622e+03 3.162277660168379134e-02
1.329157079400042221e+03 5.623413251903491145e-02
1.412846670464797853e+03 1.000000000000000056e-01
1.548240771723931175e+03 1.778279410038922925e-01
1.764922281959577276e+03 3.162277660168379412e-01
2.028978882686664519e+03 5.623413251903490728e-01
2.296585867549047634e+03 1.000000000000000000e+00
2.555389311601484678e+03 1.778279410038922759e+00
2.803281687097665781e+03 3.162277660168379523e+00
3.044559766663247501e+03 5.623413251903491172e+00
3.286066832231635999e+03 1.000000000000000000e+01
3.535081949794813227e+03 1.778279410038922848e+01
3.800332783435641431e+03 3.162277660168379256e+01
4.087278464602445183e+03 5.623413251903490817e+01
4.402642413267018128e+03 1.000000000000000000e+02
4.749556645540760655e+03 1.778279410038922776e+02
5.146322537895659480e+03 3.162277660168379612e+02
