# Temperature (K), Pressure (bars)
8.401940232823232009e+02 1.778279410038922901e-05
8.934305771682543309e+02 3.162277660168379530e-05
9.466671304454936262e+02 5.623413251903490700e-05
9.949913897530958593e+02 1.000000000000000048e-04
1.043987822197937930e+03 1.778279410038922698e-04
1.095939270585417717e+03 3.162277660168379394e-04
1.143648961024178107e+03 5.623413251903490971e-04
1.182585272894737727e+03 1.000000000000000021e-03
1.216281888864048142e+03 1.778279410038922752e-03
1.248967390472533225e+03 3.162277660168379394e-03
1.283694866614896682e+03 5.623413251903490971e-03
1.322656106856095676e+03 1.000000000000000021e-02
1.365941998271850935e+03 1.778279410038922925e-02
1.406157719438120012e+03 3.162277660168379134e-02
1.465315152127725241e+03 5.623413251903491145e-02
1.604525105660243980e+03 1.000000000000000056e-01
1.829870876082900168e+03 1.778279410038922925e-01
2.088516683976739841e+03 3.162277660168379412e-01
2.343600228970934040e+03 5.623413251903490728e-01
2.584852745865571251e+03 1.000000000000000000e+00
2.813878439978906044e+03 1.778279410038922759e+00
3.036404078898793614e+03 3.162277660168379523e+00
3.259680106800144586e+03 5.623413251903491172e+00
3.490638294134399075e+03 1.000000000000000000e+01
3.735549718216242582e+03 1.778279410038922848e+01
4.002592875058155187e+03 3.162277660168379256e+01
4.296373089923470616e+03 5.623413251903490817e+01
4.623760058307090731e+03 1.000000000000000000e+02
4.987936192287575068e+03 1.778279410038922776e+02
5.409641120250287713e+03 3.162277660168379612e+02
