# Temperature (K), Pressure (bars)
1.861657041274218955e+03 9.999999999999999547e-07
1.901291613781267188e+03 1.778279410038922901e-06
1.940926186288314966e+03 3.162277660168379191e-06
1.982388051231516783e+03 5.623413251903491208e-06
2.027168488795246276e+03 1.000000000000000082e-05
2.071625341681857208e+03 1.778279410038922901e-05
2.112191381349185576e+03 3.162277660168379530e-05
2.149846335839245512e+03 5.623413251903490700e-05
2.186924230231904403e+03 1.000000000000000048e-04
2.225802157599027851e+03 1.778279410038922698e-04
2.268743487681429087e+03 3.162277660168379394e-04
2.318068870498140313e+03 5.623413251903490971e-04
2.375059689403951324e+03 1.000000000000000021e-03
2.443404363194573307e+03 1.778279410038922752e-03
2.530085789036806545e+03 3.162277660168379394e-03
2.634865019188040606e+03 5.623413251903490971e-03
2.752815314427439716e+03 1.000000000000000021e-02
2.882978021270466797e+03 1.778279410038922925e-02
3.027099089690603250e+03 3.162277660168379134e-02
3.188747076335012025e+03 5.623413251903491145e-02
3.376314984131465280e+03 1.000000000000000056e-01
3.570505166797850961e+03 1.778279410038922925e-01
3.798142916918036462e+03 3.162277660168379412e-01
4.067003186986288711e+03 5.623413251903490728e-01
4.388242379083374544e+03 1.000000000000000000e+00
4.818828000248137869e+03 1.778279410038922759e+00
5.452302275639911386e+03 3.162277660168379523e+00
6.407065667926815877e+03 5.623413251903491172e+00
7.825087912954159947e+03 1.000000000000000000e+01
9.574171447741713564e+03 1.778279410038922848e+01
1.000000000000000000e+04 3.162277660168379256e+01
1.000000000000000000e+04 5.623413251903490817e+01
1.000000000000000000e+04 1.000000000000000000e+02
1.000000000000000000e+04 1.778279410038922776e+02
1.000000000000000000e+04 3.162277660168379612e+02
