# Temperature (K), Pressure (bars)
9.812549158260536615e+02 5.623413251903490700e-05
1.033332445608230501e+03 1.000000000000000048e-04
1.085409976765953161e+03 1.778279410038922698e-04
1.133895708874947331e+03 3.162277660168379394e-04
1.179215649455338053e+03 5.623413251903490971e-04
1.225540074231968674e+03 1.000000000000000021e-03
1.275747771028563648e+03 1.778279410038922752e-03
1.333172850239864147e+03 3.162277660168379394e-03
1.403488949925786073e+03 5.623413251903490971e-03
1.491720671525582702e+03 1.000000000000000021e-02
1.598557418191948955e+03 1.778279410038922925e-02
1.717781765030495308e+03 3.162277660168379134e-02
1.843753050710207617e+03 5.623413251903491145e-02
1.969153984147041683e+03 1.000000000000000056e-01
2.123084308282353959e+03 1.778279410038922925e-01
2.337826382929591546e+03 3.162277660168379412e-01
2.566625015114283997e+03 5.623413251903490728e-01
2.777536225426993497e+03 1.000000000000000000e+00
2.985476951521209685e+03 1.778279410038922759e+00
3.196431662094934836e+03 3.162277660168379523e+00
3.414739320417354065e+03 5.623413251903491172e+00
3.645066537989719109e+03 1.000000000000000000e+01
3.892737519491492549e+03 1.778279410038922848e+01
4.165452856636484285e+03 3.162277660168379256e+01
4.468719007356605289e+03 5.623413251903490817e+01
4.810102823708571123e+03 1.000000000000000000e+02
5.193435805313432866e+03 1.778279410038922776e+02
5.641842067187830253e+03 3.162277660168379612e+02
