# Temperature (K), Pressure (bars)
1.120671232096196263e+03 3.162277660168379394e-04
1.158184720530161940e+03 5.623413251903490971e-04
1.195698211933972516e+03 1.000000000000000021e-03
1.236585759615994220e+03 1.778279410038922752e-03
1.281422971416086966e+03 3.162277660168379394e-03
1.331026977817803299e+03 5.623413251903490971e-03
1.386425949995335031e+03 1.000000000000000021e-02
1.445974197640508692e+03 1.778279410038922925e-02
1.509869244484338196e+03 3.162277660168379134e-02
1.586577907133080544e+03 5.623413251903491145e-02
1.673689395700294881e+03 1.000000000000000056e-01
1.760686647417763879e+03 1.778279410038922925e-01
1.853391273816175044e+03 3.162277660168379412e-01
1.965642285504569827e+03 5.623413251903490728e-01
2.105120974716801356e+03 1.000000000000000000e+00
2.302330563711127979e+03 1.778279410038922759e+00
2.568052724465380379e+03 3.162277660168379523e+00
2.843136065275326473e+03 5.623413251903491172e+00
3.100635870647724914e+03 1.000000000000000000e+01
3.359038499223566760e+03 1.778279410038922848e+01
3.627560345124914420e+03 3.162277660168379256e+01
3.913012739551171762e+03 5.623413251903490817e+01
4.222495100359237767e+03 1.000000000000000000e+02
4.559449887142764965e+03 1.778279410038922776e+02
4.940718114503119978e+03 3.162277660168379612e+02
