# Temperature (K), Pressure (bars)
9.930562746519694883e+02 1.000000000000000048e-04
1.038807840942310577e+03 1.778279410038922698e-04
1.084559409329362325e+03 3.162277660168379394e-04
1.130898700389785517e+03 5.623413251903490971e-04
1.178360891560668279e+03 1.000000000000000021e-03
1.228412467845201945e+03 1.778279410038922752e-03
1.281732578245815148e+03 3.162277660168379394e-03
1.341536778941352395e+03 5.623413251903490971e-03
1.410933253051782913e+03 1.000000000000000021e-02
1.489929123909646023e+03 1.778279410038922925e-02
1.581763839153019944e+03 3.162277660168379134e-02
1.688083058671731578e+03 5.623413251903491145e-02
1.809620203590849087e+03 1.000000000000000056e-01
1.947382921462672812e+03 1.778279410038922925e-01
2.129204869897192566e+03 3.162277660168379412e-01
2.370541275756026153e+03 5.623413251903490728e-01
2.616603454275066724e+03 1.000000000000000000e+00
2.840645535495598324e+03 1.778279410038922759e+00
3.060890046473365146e+03 3.162277660168379523e+00
3.284069623289257379e+03 5.623413251903491172e+00
3.515664690850948318e+03 1.000000000000000000e+01
3.761479390596010944e+03 1.778279410038922848e+01
4.029396331206061859e+03 3.162277660168379256e+01
4.324632060222625114e+03 5.623413251903490817e+01
4.654264215100364709e+03 1.000000000000000000e+02
5.021891178221399969e+03 1.778279410038922776e+02
5.448286883343487716e+03 3.162277660168379612e+02
