# Temperature (K), Pressure (bars)
1.116361815297697831e+03 5.623413251903491208e-06
1.173477103211215308e+03 1.000000000000000082e-05
1.230592396918390250e+03 1.778279410038922901e-05
1.295333099403434062e+03 3.162277660168379530e-05
1.364125095358491535e+03 5.623413251903490700e-05
1.428359133177336844e+03 1.000000000000000048e-04
1.483420033610049359e+03 1.778279410038922698e-04
1.545738150774103133e+03 3.162277660168379394e-04
1.634801566027010949e+03 5.623413251903490971e-04
1.724474186270755126e+03 1.000000000000000021e-03
1.793356823245421310e+03 1.778279410038922752e-03
1.856625846429085868e+03 3.162277660168379394e-03
1.922447772104282649e+03 5.623413251903490971e-03
1.993671458771363859e+03 1.000000000000000021e-02
2.073090672964756322e+03 1.778279410038922925e-02
2.172392858254443581e+03 3.162277660168379134e-02
2.311310554886114460e+03 5.623413251903491145e-02
2.477484466686114047e+03 1.000000000000000056e-01
2.647208846572537823e+03 1.778279410038922925e-01
2.818320268446700538e+03 3.162277660168379412e-01
2.994963865924613856e+03 5.623413251903490728e-01
3.179839993450018937e+03 1.000000000000000000e+00
3.374783729197498360e+03 1.778279410038922759e+00
3.581920124100005523e+03 3.162277660168379523e+00
3.804753443426262947e+03 5.623413251903491172e+00
4.048136842251601138e+03 1.000000000000000000e+01
4.317904108018590705e+03 1.778279410038922848e+01
4.621152482808286550e+03 3.162277660168379256e+01
4.967372980126239781e+03 5.623413251903490817e+01
5.373432835761595925e+03 1.000000000000000000e+02
5.852131228909819583e+03 1.778279410038922776e+02
6.427209738447271775e+03 3.162277660168379612e+02
