# Temperature (K), Pressure (bars)
2.472555488352192697e+03 9.999999999999999547e-07
2.474226404222207293e+03 1.778279410038922901e-06
2.475897320092221889e+03 3.162277660168379191e-06
2.492626618563531338e+03 5.623413251903491208e-06
2.524270057343476765e+03 1.000000000000000082e-05
2.556809948783990421e+03 1.778279410038922901e-05
2.589820897352436987e+03 3.162277660168379530e-05
2.625334317314122472e+03 5.623413251903490700e-05
2.662238828068918792e+03 1.000000000000000048e-04
2.702294508044996292e+03 1.778279410038922698e-04
2.745369897955177748e+03 3.162277660168379394e-04
2.790840534724183271e+03 5.623413251903490971e-04
2.836787361900229371e+03 1.000000000000000021e-03
2.878943716836029580e+03 1.778279410038922752e-03
2.913159274503289453e+03 3.162277660168379394e-03
2.941843949195163987e+03 5.623413251903490971e-03
2.976118166019842647e+03 1.000000000000000021e-02
3.026599848703292537e+03 1.778279410038922925e-02
3.093094090136349678e+03 3.162277660168379134e-02
3.169910239319036464e+03 5.623413251903491145e-02
3.279307675748930706e+03 1.000000000000000056e-01
3.444223466022926004e+03 1.778279410038922925e-01
3.641883282905017950e+03 3.162277660168379412e-01
3.863817794189960296e+03 5.623413251903490728e-01
4.126992620943928159e+03 1.000000000000000000e+00
4.431303422045712978e+03 1.778279410038922759e+00
4.815055662540729827e+03 3.162277660168379523e+00
5.335766459269653751e+03 5.623413251903491172e+00
6.116527954394183325e+03 1.000000000000000000e+01
7.333001485142304773e+03 1.778279410038922848e+01
8.995537763316115161e+03 3.162277660168379256e+01
1.000000000000000000e+04 5.623413251903490817e+01
1.000000000000000000e+04 1.000000000000000000e+02
1.000000000000000000e+04 1.778279410038922776e+02
1.000000000000000000e+04 3.162277660168379612e+02
