# Temperature (K), Pressure (bars)
2.099012444193223928e+03 9.999999999999999547e-07
2.130949562524954672e+03 1.778279410038922901e-06
2.162886680856684507e+03 3.162277660168379191e-06
2.199574151562499537e+03 5.623413251903491208e-06
2.239540444692177971e+03 1.000000000000000082e-05
2.281617343515460561e+03 1.778279410038922901e-05
2.325149412692948772e+03 3.162277660168379530e-05
2.367400766505066258e+03 5.623413251903490700e-05
2.406204390877608148e+03 1.000000000000000048e-04
2.441230426215028274e+03 1.778279410038922698e-04
2.473332524907411425e+03 3.162277660168379394e-04
2.504156614626976079e+03 5.623413251903490971e-04
2.536100819836974551e+03 1.000000000000000021e-03
2.572098685106454468e+03 1.778279410038922752e-03
2.615067103326920915e+03 3.162277660168379394e-03
2.667829210577629055e+03 5.623413251903490971e-03
2.732284014443136130e+03 1.000000000000000021e-02
2.809997084080330296e+03 1.778279410038922925e-02
2.909319474065041504e+03 3.162277660168379134e-02
3.037031159885413217e+03 5.623413251903491145e-02
3.188658940432064810e+03 1.000000000000000056e-01
3.363028592743390618e+03 1.778279410038922925e-01
3.564445727827873270e+03 3.162277660168379412e-01
3.795793173581117117e+03 5.623413251903490728e-01
4.062598980702803146e+03 1.000000000000000000e+00
4.377379545164631054e+03 1.778279410038922759e+00
4.738638581552253527e+03 3.162277660168379523e+00
5.211844722337288658e+03 5.623413251903491172e+00
5.879802367309120200e+03 1.000000000000000000e+01
6.888093371038203259e+03 1.778279410038922848e+01
8.383057749582609176e+03 3.162277660168379256e+01
1.024761947003016940e+04 5.623413251903490817e+01
1.246713518740340987e+04 1.000000000000000000e+02
1.517513608320426647e+04 1.778279410038922776e+02
1.840541339492454790e+04 3.162277660168379612e+02
