# Temperature (K), Pressure (bars)
2.392609365216731476e+03 9.999999999999999547e-07
2.409683995879270697e+03 1.778279410038922901e-06
2.426758626541810372e+03 3.162277660168379191e-06
2.456631422618473152e+03 5.623413251903491208e-06
2.490029758782539375e+03 1.000000000000000082e-05
2.523407589933582130e+03 1.778279410038922901e-05
2.559798707710263443e+03 3.162277660168379530e-05
2.598953439237519433e+03 5.623413251903490700e-05
2.640356433706450844e+03 1.000000000000000048e-04
2.682188378902726527e+03 1.778279410038922698e-04
2.721015661344096770e+03 3.162277660168379394e-04
2.752607729716597987e+03 5.623413251903490971e-04
2.776287481359136109e+03 1.000000000000000021e-03
2.800190415546268923e+03 1.778279410038922752e-03
2.837378055327413222e+03 3.162277660168379394e-03
2.893931314246226066e+03 5.623413251903490971e-03
2.968276960457425503e+03 1.000000000000000021e-02
3.051804874103559541e+03 1.778279410038922925e-02
3.145421038235222113e+03 3.162277660168379134e-02
3.272685328811275667e+03 5.623413251903491145e-02
3.445891233008514519e+03 1.000000000000000056e-01
3.650563677202215786e+03 1.778279410038922925e-01
3.900379622616507731e+03 3.162277660168379412e-01
4.189218401799578714e+03 5.623413251903490728e-01
4.571985470092005926e+03 1.000000000000000000e+00
5.143457009514568199e+03 1.778279410038922759e+00
6.090735676952198446e+03 3.162277660168379523e+00
7.500208827437711989e+03 5.623413251903491172e+00
9.198486684541057912e+03 1.000000000000000000e+01
1.000000000000000000e+04 1.778279410038922848e+01
1.000000000000000000e+04 3.162277660168379256e+01
1.000000000000000000e+04 5.623413251903490817e+01
1.000000000000000000e+04 1.000000000000000000e+02
1.000000000000000000e+04 1.778279410038922776e+02
1.000000000000000000e+04 3.162277660168379612e+02
