# Temperature (K), Pressure (bars)
1.629659685213911189e+03 9.999999999999999547e-07
1.659402006925334945e+03 1.778279410038922901e-06
1.689144328636758473e+03 3.162277660168379191e-06
1.725386871100891085e+03 5.623413251903491208e-06
1.765999685359685600e+03 1.000000000000000082e-05
1.811176676959978749e+03 1.778279410038922901e-05
1.860308313113989698e+03 3.162277660168379530e-05
1.912015352123721186e+03 5.623413251903490700e-05
1.966747279832935646e+03 1.000000000000000048e-04
2.025140093041092996e+03 1.778279410038922698e-04
2.088141990904326576e+03 3.162277660168379394e-04
2.156405651499402211e+03 5.623413251903490971e-04
2.234656103695794172e+03 1.000000000000000021e-03
2.329111838596849793e+03 1.778279410038922752e-03
2.436848275907321295e+03 3.162277660168379394e-03
2.552773065630762630e+03 5.623413251903490971e-03
2.676795838782506962e+03 1.000000000000000021e-02
2.810242883820115367e+03 1.778279410038922925e-02
2.955530328244101838e+03 3.162277660168379134e-02
3.116220303448990308e+03 5.623413251903491145e-02
3.297742131375372992e+03 1.000000000000000056e-01
3.497373155102970941e+03 1.778279410038922925e-01
3.707970412964952629e+03 3.162277660168379412e-01
3.951092803403444123e+03 5.623413251903490728e-01
4.236395061446755790e+03 1.000000000000000000e+00
4.582011628561567704e+03 1.778279410038922759e+00
5.045242451016418272e+03 3.162277660168379523e+00
5.729460941600023034e+03 5.623413251903491172e+00
6.806251642422359510e+03 1.000000000000000000e+01
8.353714473894391631e+03 1.778279410038922848e+01
1.000000000000000000e+04 3.162277660168379256e+01
1.000000000000000000e+04 5.623413251903490817e+01
1.000000000000000000e+04 1.000000000000000000e+02
1.000000000000000000e+04 1.778279410038922776e+02
1.000000000000000000e+04 3.162277660168379612e+02
