# Temperature (K), Pressure (bars)
2.165416800361840615e+03 9.999999999999999547e-07
2.190082585255296635e+03 1.778279410038922901e-06
2.214748370148752656e+03 3.162277660168379191e-06
2.244386100596986580e+03 5.623413251903491208e-06
2.277012425334560248e+03 1.000000000000000082e-05
2.312926552427469232e+03 1.778279410038922901e-05
2.353073490385069817e+03 3.162277660168379530e-05
2.396129756770820222e+03 5.623413251903490700e-05
2.440760155277291688e+03 1.000000000000000048e-04
2.484897239258537866e+03 1.778279410038922698e-04
2.526066381277968958e+03 3.162277660168379394e-04
2.562920615949081366e+03 5.623413251903490971e-04
2.595841970270706952e+03 1.000000000000000021e-03
2.626292371898816782e+03 1.778279410038922752e-03
2.656998689916228614e+03 3.162277660168379394e-03
2.691061686236211699e+03 5.623413251903490971e-03
2.733620074208225105e+03 1.000000000000000021e-02
2.786830075963437139e+03 1.778279410038922925e-02
2.858936007237128251e+03 3.162277660168379134e-02
2.965917463214034342e+03 5.623413251903491145e-02
3.102965130950230559e+03 1.000000000000000056e-01
3.259270971109828224e+03 1.778279410038922925e-01
3.436847223743522136e+03 3.162277660168379412e-01
3.639221392126365572e+03 5.623413251903490728e-01
3.869177728740869043e+03 1.000000000000000000e+00
4.130856122139983199e+03 1.778279410038922759e+00
4.433363210164670818e+03 3.162277660168379523e+00
4.778642737555926033e+03 5.623413251903491172e+00
5.208130960510973637e+03 1.000000000000000000e+01
5.769594994213445716e+03 1.778279410038922848e+01
6.551263070528352728e+03 3.162277660168379256e+01
7.707192946037698675e+03 5.623413251903490817e+01
9.351687138780604073e+03 1.000000000000000000e+02
1.000000000000000000e+04 1.778279410038922776e+02
1.000000000000000000e+04 3.162277660168379612e+02
