# Temperature (K), Pressure (bars)
1.257359626039144814e+03 9.999999999999999547e-07
1.299419333546702092e+03 1.778279410038922901e-06
1.341479041060362078e+03 3.162277660168379191e-06
1.383997207367930969e+03 5.623413251903491208e-06
1.430083943051863798e+03 1.000000000000000082e-05
1.485091228489535524e+03 1.778279410038922901e-05
1.552960426797299988e+03 3.162277660168379530e-05
1.625357622724272460e+03 5.623413251903490700e-05
1.694523170324445800e+03 1.000000000000000048e-04
1.763873513617988237e+03 1.778279410038922698e-04
1.837774797264804874e+03 3.162277660168379394e-04
1.917383103142487016e+03 5.623413251903490971e-04
2.005060061276030865e+03 1.000000000000000021e-03
2.109156211658961183e+03 1.778279410038922752e-03
2.233178139929818826e+03 3.162277660168379394e-03
2.367925472378649829e+03 5.623413251903490971e-03
2.507199033409243839e+03 1.000000000000000021e-02
2.652347130342093351e+03 1.778279410038922925e-02
2.805164003178126222e+03 3.162277660168379134e-02
2.967687790031081931e+03 5.623413251903491145e-02
3.142040019501657298e+03 1.000000000000000056e-01
3.329793559021995861e+03 1.778279410038922925e-01
3.532368467354493077e+03 3.162277660168379412e-01
3.753208950828818161e+03 5.623413251903490728e-01
3.999698996490415993e+03 1.000000000000000000e+00
4.283562585572261924e+03 1.778279410038922759e+00
4.610161873776919492e+03 3.162277660168379523e+00
5.020730128534420146e+03 5.623413251903491172e+00
5.571017287507178480e+03 1.000000000000000000e+01
6.368805676401339042e+03 1.778279410038922848e+01
7.585977055588397889e+03 3.162277660168379256e+01
9.270693598573956479e+03 5.623413251903490817e+01
1.131297888974553462e+04 1.000000000000000000e+02
1.377343347941229331e+04 1.778279410038922776e+02
1.670845351227332139e+04 3.162277660168379612e+02
