# Temperature (K), Pressure (bars)
1.415018751025079609e+03 9.999999999999999547e-07
1.440975861997613947e+03 1.778279410038922901e-06
1.466932972970148512e+03 3.162277660168379191e-06
1.529016752975253667e+03 5.623413251903491208e-06
1.603284850170466825e+03 1.000000000000000082e-05
1.665701208125064795e+03 1.778279410038922901e-05
1.720696593903835947e+03 3.162277660168379530e-05
1.772947207958822219e+03 5.623413251903490700e-05
1.825316936965220748e+03 1.000000000000000048e-04
1.878711721664431707e+03 1.778279410038922698e-04
1.932548411544499004e+03 3.162277660168379394e-04
1.988130353603934054e+03 5.623413251903490971e-04
2.046693950470096070e+03 1.000000000000000021e-03
2.110235405469420584e+03 1.778279410038922752e-03
2.180987117050849065e+03 3.162277660168379394e-03
2.270016745179798363e+03 5.623413251903490971e-03
2.385697892492494248e+03 1.000000000000000021e-02
2.515201595420314788e+03 1.778279410038922925e-02
2.649851343802933570e+03 3.162277660168379134e-02
2.792623260339536500e+03 5.623413251903491145e-02
2.945039282540090881e+03 1.000000000000000056e-01
3.108949027706772540e+03 1.778279410038922925e-01
3.286183911243185321e+03 3.162277660168379412e-01
3.478059880788864575e+03 5.623413251903490728e-01
3.686058950654381078e+03 1.000000000000000000e+00
3.913522673070360270e+03 1.778279410038922759e+00
4.166502558499455517e+03 3.162277660168379523e+00
4.453935013917941433e+03 5.623413251903491172e+00
4.788874900351874203e+03 1.000000000000000000e+01
5.186602494745604417e+03 1.778279410038922848e+01
5.678479761034882358e+03 3.162277660168379256e+01
6.309136949708959037e+03 5.623413251903490817e+01
7.153110746712773107e+03 1.000000000000000000e+02
8.343591521383519648e+03 1.778279410038922776e+02
1.000000000000000000e+04 3.162277660168379612e+02
