# Temperature (K), Pressure (bars)
1.175244627922900463e+03 5.623413251903490700e-05
1.210680820756293770e+03 1.000000000000000048e-04
1.246117016312354053e+03 1.778279410038922698e-04
1.287556715826822710e+03 3.162277660168379394e-04
1.336041279712101641e+03 5.623413251903490971e-04
1.390619211597409731e+03 1.000000000000000021e-03
1.448102739329541009e+03 1.778279410038922752e-03
1.513084691261515218e+03 3.162277660168379394e-03
1.594549549381545603e+03 5.623413251903490971e-03
1.678030752257158156e+03 1.000000000000000021e-02
1.754234248309995110e+03 1.778279410038922925e-02
1.833087000788114665e+03 3.162277660168379134e-02
1.925515950181073322e+03 5.623413251903491145e-02
2.033165449552681821e+03 1.000000000000000056e-01
2.177322408650204125e+03 1.778279410038922925e-01
2.381279754614621197e+03 3.162277660168379412e-01
2.601355626294104695e+03 5.623413251903490728e-01
2.807094524526978603e+03 1.000000000000000000e+00
3.011928374937556327e+03 1.778279410038922759e+00
3.221488684569912039e+03 3.162277660168379523e+00
3.439577933013060829e+03 5.623413251903491172e+00
3.670373318356166237e+03 1.000000000000000000e+01
3.919024774087541573e+03 1.778279410038922848e+01
4.193027246640259364e+03 3.162277660168379256e+01
4.498173933244661384e+03 5.623413251903490817e+01
4.842298254477016599e+03 1.000000000000000000e+02
5.228892042732704795e+03 1.778279410038922776e+02
5.682792115905235732e+03 3.162277660168379612e+02
