# Temperature (K), Pressure (bars)
9.116991739405793851e+02 5.623413251903490971e-04
9.621135556859850340e+02 1.000000000000000021e-03
1.012527938930378696e+03 1.778279410038922752e-03
1.061520591031381400e+03 3.162277660168379394e-03
1.110635286674320923e+03 5.623413251903490971e-03
1.160782767169579984e+03 1.000000000000000021e-02
1.213068580279598564e+03 1.778279410038922925e-02
1.269099920638788262e+03 3.162277660168379134e-02
1.334958890584405935e+03 5.623413251903491145e-02
1.423859312171492547e+03 1.000000000000000056e-01
1.546592379684187108e+03 1.778279410038922925e-01
1.702763168691396686e+03 3.162277660168379412e-01
1.893090745944550918e+03 5.623413251903490728e-01
2.131510149832311527e+03 1.000000000000000000e+00
2.404892501157375136e+03 1.778279410038922759e+00
2.673201603989215073e+03 3.162277660168379523e+00
2.926651656446384095e+03 5.623413251903491172e+00
3.176488910488863439e+03 1.000000000000000000e+01
3.430237015795481966e+03 1.778279410038922848e+01
3.696991459537875926e+03 3.162277660168379256e+01
3.982709671874920787e+03 5.623413251903490817e+01
4.294238311568525205e+03 1.000000000000000000e+02
4.634787692768015404e+03 1.778279410038922776e+02
5.021879028858320453e+03 3.162277660168379612e+02
