# Temperature (K), Pressure (bars)
2.236875329173747559e+03 5.623413251903491208e-06
2.254206464781208069e+03 1.000000000000000082e-05
2.271537609879781940e+03 1.778279410038922901e-05
2.295518054577592011e+03 3.162277660168379530e-05
2.326616422557724945e+03 5.623413251903490700e-05
2.366221668980605955e+03 1.000000000000000048e-04
2.417655392919814403e+03 1.778279410038922698e-04
2.481747861266282143e+03 3.162277660168379394e-04
2.557058315490031418e+03 5.623413251903490971e-04
2.643097391886259629e+03 1.000000000000000021e-03
2.738843204300858815e+03 1.778279410038922752e-03
2.841037429838084336e+03 3.162277660168379394e-03
2.942682386427029996e+03 5.623413251903490971e-03
3.036360954159926678e+03 1.000000000000000021e-02
3.114129607820415004e+03 1.778279410038922925e-02
3.178029254810642669e+03 3.162277660168379134e-02
3.219137613564677849e+03 5.623413251903491145e-02
3.260190152362545632e+03 1.000000000000000056e-01
3.371967406356145602e+03 1.778279410038922925e-01
3.549729125203449712e+03 3.162277660168379412e-01
3.759941954808898572e+03 5.623413251903490728e-01
4.010159098893056580e+03 1.000000000000000000e+00
4.312983941251550277e+03 1.778279410038922759e+00
4.649954215214310352e+03 3.162277660168379523e+00
5.079576015424162506e+03 5.623413251903491172e+00
5.669859294024785413e+03 1.000000000000000000e+01
6.557597034093926595e+03 1.778279410038922848e+01
7.901061644927211091e+03 3.162277660168379256e+01
9.671584873291034455e+03 5.623413251903490817e+01
1.000000000000000000e+04 1.000000000000000000e+02
1.000000000000000000e+04 1.778279410038922776e+02
1.000000000000000000e+04 3.162277660168379612e+02
