# Temperature (K), Pressure (bars)
1.696688861428471228e+03 9.999999999999999547e-07
1.712978690071173560e+03 1.778279410038922901e-06
1.729268518713985031e+03 3.162277660168379191e-06
1.749661542073409464e+03 5.623413251903491208e-06
1.776125103394150301e+03 1.000000000000000082e-05
1.811345773398931669e+03 1.778279410038922901e-05
1.852750284383721691e+03 3.162277660168379530e-05
1.897721046483647115e+03 5.623413251903490700e-05
1.946207270631937263e+03 1.000000000000000048e-04
1.997829841172146644e+03 1.778279410038922698e-04
2.052904361756095568e+03 3.162277660168379394e-04
2.111366621419047533e+03 5.623413251903490971e-04
2.173698447667159144e+03 1.000000000000000021e-03
2.241748174080810713e+03 1.778279410038922752e-03
2.323800503406766438e+03 3.162277660168379394e-03
2.426117012986938789e+03 5.623413251903490971e-03
2.541536146837664091e+03 1.000000000000000021e-02
2.664740789823615160e+03 1.778279410038922925e-02
2.797255711532415262e+03 3.162277660168379134e-02
2.940343498745279703e+03 5.623413251903491145e-02
3.095789947262910573e+03 1.000000000000000056e-01
3.266029412184810099e+03 1.778279410038922925e-01
3.454000954084935074e+03 3.162277660168379412e-01
3.662655022540688151e+03 5.623413251903490728e-01
3.895494893927552312e+03 1.000000000000000000e+00
4.158809046267006124e+03 1.778279410038922759e+00
4.463996832002134397e+03 3.162277660168379523e+00
4.818277883565240700e+03 5.623413251903491172e+00
5.264123664085410383e+03 1.000000000000000000e+01
5.856690642309207760e+03 1.778279410038922848e+01
6.687784113264227926e+03 3.162277660168379256e+01
7.908102108118041542e+03 5.623413251903490817e+01
9.620033455876395237e+03 1.000000000000000000e+02
1.171318935718820103e+04 1.778279410038922776e+02
1.420475424345669671e+04 3.162277660168379612e+02
