# Temperature (K), Pressure (bars)
1.575348900966194833e+03 9.999999999999999547e-07
1.591704034627284045e+03 1.778279410038922901e-06
1.608059168678940750e+03 3.162277660168379191e-06
1.633648857364286414e+03 5.623413251903491208e-06
1.662204719905078719e+03 1.000000000000000082e-05
1.699822116178635497e+03 1.778279410038922901e-05
1.768366911539276543e+03 3.162277660168379530e-05
1.839381104451807005e+03 5.623413251903490700e-05
1.889522008624206819e+03 1.000000000000000048e-04
1.933775857791823910e+03 1.778279410038922698e-04
1.975497414292190115e+03 3.162277660168379394e-04
2.014051679869835880e+03 5.623413251903490971e-04
2.050396197710952038e+03 1.000000000000000021e-03
2.084020985565398405e+03 1.778279410038922752e-03
2.116206576093970853e+03 3.162277660168379394e-03
2.149407393612066699e+03 5.623413251903490971e-03
2.185263607796879569e+03 1.000000000000000021e-02
2.229118930972501857e+03 1.778279410038922925e-02
2.281547384535312631e+03 3.162277660168379134e-02
2.358935744294702090e+03 5.623413251903491145e-02
2.488840292113173746e+03 1.000000000000000056e-01
2.650642065188238121e+03 1.778279410038922925e-01
2.818380626881089938e+03 3.162277660168379412e-01
2.994363104343163286e+03 5.623413251903490728e-01
3.180061302913562031e+03 1.000000000000000000e+00
3.376319538630293209e+03 1.778279410038922759e+00
3.584606058083866628e+03 3.162277660168379523e+00
3.808368377651768697e+03 5.623413251903491172e+00
4.052798876978608860e+03 1.000000000000000000e+01
4.323788985250432233e+03 1.778279410038922848e+01
4.628790174250169002e+03 3.162277660168379256e+01
4.977535244989530838e+03 5.623413251903490817e+01
5.385948650521487252e+03 1.000000000000000000e+02
5.868526390523877126e+03 1.778279410038922776e+02
6.450280036040904633e+03 3.162277660168379612e+02
