# Temperature (K), Pressure (bars)
2.135253608797805100e+03 9.999999999999999547e-07
2.153809443559526699e+03 1.778279410038922901e-06
2.172365278321254664e+03 3.162277660168379191e-06
2.193720873074253177e+03 5.623413251903491208e-06
2.217692859082691029e+03 1.000000000000000082e-05
2.244393948121146423e+03 1.778279410038922901e-05
2.274741120405305082e+03 3.162277660168379530e-05
2.309131662124628747e+03 5.623413251903490700e-05
2.346547617578463360e+03 1.000000000000000048e-04
2.384607579094711582e+03 1.778279410038922698e-04
2.420998990019265875e+03 3.162277660168379394e-04
2.454388101529496453e+03 5.623413251903490971e-04
2.484360073846335581e+03 1.000000000000000021e-03
2.511745636753530107e+03 1.778279410038922752e-03
2.538325366358178144e+03 3.162277660168379394e-03
2.566983448033273817e+03 5.623413251903490971e-03
2.599930803188990467e+03 1.000000000000000021e-02
2.642382241201317356e+03 1.778279410038922925e-02
2.694580474482065256e+03 3.162277660168379134e-02
2.770037962820282701e+03 5.623413251903491145e-02
2.890593463174735462e+03 1.000000000000000056e-01
3.038115731382022659e+03 1.778279410038922925e-01
3.196109126275393464e+03 3.162277660168379412e-01
3.371230059928830997e+03 5.623413251903490728e-01
3.565688888401902659e+03 1.000000000000000000e+00
3.780855571522803984e+03 1.778279410038922759e+00
4.018903270598664676e+03 3.162277660168379523e+00
4.284608112112437084e+03 5.623413251903491172e+00
4.586048515981544369e+03 1.000000000000000000e+01
4.933683444300206247e+03 1.778279410038922848e+01
5.347857497893999607e+03 3.162277660168379256e+01
5.854094168793162680e+03 5.623413251903490817e+01
6.493612057326881768e+03 1.000000000000000000e+02
7.335884289527558394e+03 1.778279410038922776e+02
8.499116214823830887e+03 3.162277660168379612e+02
