# Temperature (K), Pressure (bars)
1.025294191403469085e+03 3.162277660168379394e-04
1.080978155311600176e+03 5.623413251903490971e-04
1.136662121124370060e+03 1.000000000000000021e-03
1.191357229804767030e+03 1.778279410038922752e-03
1.246438566716279638e+03 3.162277660168379394e-03
1.303258348987501904e+03 5.623413251903490971e-03
1.363870067147354348e+03 1.000000000000000021e-02
1.432148787994318127e+03 1.778279410038922925e-02
1.513670913479023511e+03 3.162277660168379134e-02
1.612597591794995878e+03 5.623413251903491145e-02
1.732219352939096325e+03 1.000000000000000056e-01
1.869150794060215048e+03 1.778279410038922925e-01
2.042790458891226081e+03 3.162277660168379412e-01
2.273882020541124803e+03 5.623413251903490728e-01
2.521434337169971968e+03 1.000000000000000000e+00
2.754295096419763922e+03 1.778279410038922759e+00
2.981275227530428310e+03 3.162277660168379523e+00
3.208802779343856855e+03 5.623413251903491172e+00
3.442659392989261960e+03 1.000000000000000000e+01
3.688787326840335027e+03 1.778279410038922848e+01
3.955145218126504460e+03 3.162277660168379256e+01
4.247017593287323507e+03 5.623413251903490817e+01
4.571350733929972193e+03 1.000000000000000000e+02
4.931624131002856302e+03 1.778279410038922776e+02
5.347510220837226370e+03 3.162277660168379612e+02
