# Temperature (K), Pressure (bars)
9.175515812635942439e+02 9.999999999999999547e-07
9.336584777841401319e+02 1.778279410038922901e-06
9.497653743113405653e+02 3.162277660168379191e-06
9.699783180067704507e+02 5.623413251903491208e-06
9.955108513593811495e+02 1.000000000000000082e-05
1.025551312039300910e+03 1.778279410038922901e-05
1.059506779855403693e+03 3.162277660168379530e-05
1.097775474857833615e+03 5.623413251903490700e-05
1.139988700481034357e+03 1.000000000000000048e-04
1.186078450044275087e+03 1.778279410038922698e-04
1.236488152927966894e+03 3.162277660168379394e-04
1.290607611595260551e+03 5.623413251903490971e-04
1.348759780374700995e+03 1.000000000000000021e-03
1.414015694385305551e+03 1.778279410038922752e-03
1.489993128136360383e+03 3.162277660168379394e-03
1.580018058807400394e+03 5.623413251903490971e-03
1.689968099687564063e+03 1.000000000000000021e-02
1.834298661625334717e+03 1.778279410038922925e-02
2.020702941381957771e+03 3.162277660168379134e-02
2.226250375232816168e+03 5.623413251903491145e-02
2.424123551486327415e+03 1.000000000000000056e-01
2.611100833751700065e+03 1.778279410038922925e-01
2.793589571833000264e+03 3.162277660168379412e-01
2.976440453389181584e+03 5.623413251903490728e-01
3.163021587420474134e+03 1.000000000000000000e+00
3.356505748379511260e+03 1.778279410038922759e+00
3.560865000688808323e+03 3.162277660168379523e+00
3.780676020879282987e+03 5.623413251903491172e+00
4.020900823202386619e+03 1.000000000000000000e+01
4.287148289679571462e+03 1.778279410038922848e+01
4.586220747807783482e+03 3.162277660168379256e+01
4.927251469756020015e+03 5.623413251903490817e+01
5.326702571524682753e+03 1.000000000000000000e+02
5.796468492120008705e+03 1.778279410038922776e+02
6.358983964314255900e+03 3.162277660168379612e+02
