# Temperature (K), Pressure (bars)
2.458114925070659865e+03 9.999999999999999547e-07
2.483527099554740289e+03 1.778279410038922901e-06
2.508939274038820713e+03 3.162277660168379191e-06
2.535539455609710330e+03 5.623413251903491208e-06
2.565568760172381189e+03 1.000000000000000082e-05
2.598521609798941427e+03 1.778279410038922901e-05
2.632071206373688256e+03 3.162277660168379530e-05
2.666755722763838548e+03 5.623413251903490700e-05
2.702622993158793633e+03 1.000000000000000048e-04
2.738742294625374598e+03 1.778279410038922698e-04
2.774396000981218549e+03 3.162277660168379394e-04
2.807481357645056050e+03 5.623413251903490971e-04
2.834684421995378671e+03 1.000000000000000021e-03
2.854496147400660448e+03 1.778279410038922752e-03
2.871642172228413983e+03 3.162277660168379394e-03
2.896980588070767681e+03 5.623413251903490971e-03
2.939333981832402515e+03 1.000000000000000021e-02
3.003465398996261683e+03 1.778279410038922925e-02
3.087500751782819407e+03 3.162277660168379134e-02
3.196672694490499453e+03 5.623413251903491145e-02
3.344683436585974960e+03 1.000000000000000056e-01
3.526389684717819819e+03 1.778279410038922925e-01
3.739844857293615405e+03 3.162277660168379412e-01
4.005122167243970125e+03 5.623413251903490728e-01
4.299575321825278479e+03 1.000000000000000000e+00
4.676879429853166585e+03 1.778279410038922759e+00
5.205692422183686176e+03 3.162277660168379523e+00
6.027688573865191756e+03 5.623413251903491172e+00
7.306004632497231796e+03 1.000000000000000000e+01
8.982303858773218963e+03 1.778279410038922848e+01
1.000000000000000000e+04 3.162277660168379256e+01
1.000000000000000000e+04 5.623413251903490817e+01
1.000000000000000000e+04 1.000000000000000000e+02
1.000000000000000000e+04 1.778279410038922776e+02
1.000000000000000000e+04 3.162277660168379612e+02
