# Temperature (K), Pressure (bars)
1.045898503196838192e+03 3.162277660168379394e-04
1.082991268466895690e+03 5.623413251903490971e-04
1.120084030999767037e+03 1.000000000000000021e-03
1.153196879526937209e+03 1.778279410038922752e-03
1.184436417088400276e+03 3.162277660168379394e-03
1.216289065823564670e+03 5.623413251903490971e-03
1.248590079354058162e+03 1.000000000000000021e-02
1.280967465950917131e+03 1.778279410038922925e-02
1.314145823966215630e+03 3.162277660168379134e-02
1.348153193095473398e+03 5.623413251903491145e-02
1.393625519535847161e+03 1.000000000000000056e-01
1.464675409050463941e+03 1.778279410038922925e-01
1.558521134124227729e+03 3.162277660168379412e-01
1.678908504611779108e+03 5.623413251903490728e-01
1.829306887543853918e+03 1.000000000000000000e+00
2.034432032679689200e+03 1.778279410038922759e+00
2.313377429244229006e+03 3.162277660168379523e+00
2.609010917266105025e+03 5.623413251903491172e+00
2.886134950576728897e+03 1.000000000000000000e+01
3.158592760007050856e+03 1.778279410038922848e+01
3.435285045145270487e+03 3.162277660168379256e+01
3.723325677655010168e+03 5.623413251903490817e+01
4.030369747400227880e+03 1.000000000000000000e+02
4.360760601267575112e+03 1.778279410038922776e+02
4.729570050537769930e+03 3.162277660168379612e+02
