# Temperature (K), Pressure (bars)
1.604933260093803710e+03 9.999999999999999547e-07
1.662824766548608977e+03 1.778279410038922901e-06
1.720716273003414472e+03 3.162277660168379191e-06
1.775762560617321242e+03 5.623413251903491208e-06
1.830608806137066949e+03 1.000000000000000082e-05
1.882913377618267759e+03 1.778279410038922901e-05
1.931567648175511295e+03 3.162277660168379530e-05
1.979258410903491949e+03 5.623413251903490700e-05
2.028590309362457219e+03 1.000000000000000048e-04
2.080602922378075164e+03 1.778279410038922698e-04
2.136241740710225713e+03 3.162277660168379394e-04
2.197033440138395690e+03 5.623413251903490971e-04
2.267223467282079127e+03 1.000000000000000021e-03
2.354362247245472645e+03 1.778279410038922752e-03
2.458559793324957354e+03 3.162277660168379394e-03
2.574383523558276465e+03 5.623413251903490971e-03
2.699868942572796186e+03 1.000000000000000021e-02
2.835709775678732058e+03 1.778279410038922925e-02
2.983956559845357333e+03 3.162277660168379134e-02
3.148379132844171181e+03 5.623413251903491145e-02
3.337718093559283261e+03 1.000000000000000056e-01
3.527261747537456813e+03 1.778279410038922925e-01
3.744679272462021345e+03 3.162277660168379412e-01
3.998451477251042888e+03 5.623413251903490728e-01
4.290563163916013764e+03 1.000000000000000000e+00
4.663847789528641442e+03 1.778279410038922759e+00
5.181054567121886976e+03 3.162277660168379523e+00
5.949642966036602957e+03 5.623413251903491172e+00
7.103540828178827724e+03 1.000000000000000000e+01
8.726295006658456259e+03 1.778279410038922848e+01
1.000000000000000000e+04 3.162277660168379256e+01
1.000000000000000000e+04 5.623413251903490817e+01
1.000000000000000000e+04 1.000000000000000000e+02
1.000000000000000000e+04 1.778279410038922776e+02
1.000000000000000000e+04 3.162277660168379612e+02
