# Temperature (K), Pressure (bars)
1.216126575120840243e+03 9.999999999999999547e-07
1.276777057042343586e+03 1.778279410038922901e-06
1.337427538963847610e+03 3.162277660168379191e-06
1.455050340220685257e+03 5.623413251903491208e-06
1.583707300961997589e+03 1.000000000000000082e-05
1.679621771317252296e+03 1.778279410038922901e-05
1.758427297292042113e+03 3.162277660168379530e-05
1.828442334891788960e+03 5.623413251903490700e-05
1.884491969525120567e+03 1.000000000000000048e-04
1.930451309596887313e+03 1.778279410038922698e-04
1.970796907492732998e+03 3.162277660168379394e-04
2.008688308524677723e+03 5.623413251903490971e-04
2.046726463661208754e+03 1.000000000000000021e-03
2.086547403621786543e+03 1.778279410038922752e-03
2.130580345961903276e+03 3.162277660168379394e-03
2.180285119790576573e+03 5.623413251903490971e-03
2.239748018102161950e+03 1.000000000000000021e-02
2.310053044347590003e+03 1.778279410038922925e-02
2.403180903574455897e+03 3.162277660168379134e-02
2.534364951954996741e+03 5.623413251903491145e-02
2.684193055899932915e+03 1.000000000000000056e-01
2.837997204589459216e+03 1.778279410038922925e-01
3.002000003299167020e+03 3.162277660168379412e-01
3.177973730016810805e+03 5.623413251903490728e-01
3.366302909836184881e+03 1.000000000000000000e+00
3.567528944084234809e+03 1.778279410038922759e+00
3.784117880843827606e+03 3.162277660168379523e+00
4.020611663648267495e+03 5.623413251903491172e+00
4.283006815845292294e+03 1.000000000000000000e+01
4.578735042494232403e+03 1.778279410038922848e+01
4.917680093067496273e+03 3.162277660168379256e+01
5.316518755465670438e+03 5.623413251903490817e+01
5.791035199784530960e+03 1.000000000000000000e+02
6.368117999637281173e+03 1.778279410038922776e+02
7.089298429694234073e+03 3.162277660168379612e+02
