# Temperature (K), Pressure (bars)
2.288595647800917050e+03 9.999999999999999547e-07
2.314486109415274768e+03 1.778279410038922901e-06
2.340376571029632942e+03 3.162277660168379191e-06
2.364734028129386843e+03 5.623413251903491208e-06
2.395028655717575930e+03 1.000000000000000082e-05
2.428414434380221792e+03 1.778279410038922901e-05
2.462919813322209393e+03 3.162277660168379530e-05
2.500043098070063934e+03 5.623413251903490700e-05
2.537805947813425064e+03 1.000000000000000048e-04
2.575547745346681950e+03 1.778279410038922698e-04
2.611974485853374517e+03 3.162277660168379394e-04
2.643126682985579919e+03 5.623413251903490971e-04
2.666524128519193710e+03 1.000000000000000021e-03
2.686795230788534809e+03 1.778279410038922752e-03
2.713833780233306243e+03 3.162277660168379394e-03
2.755016608016210284e+03 5.623413251903490971e-03
2.810406264678504613e+03 1.000000000000000021e-02
2.874283879573510603e+03 1.778279410038922925e-02
2.940068379093201202e+03 3.162277660168379134e-02
3.029923903473938481e+03 5.623413251903491145e-02
3.168608936796304988e+03 1.000000000000000056e-01
3.336301281068406752e+03 1.778279410038922925e-01
3.522060121465973225e+03 3.162277660168379412e-01
3.737346936168501998e+03 5.623413251903490728e-01
3.987661491820488664e+03 1.000000000000000000e+00
4.282025002309768752e+03 1.778279410038922759e+00
4.608441140503055976e+03 3.162277660168379523e+00
5.019038254691793554e+03 5.623413251903491172e+00
5.570791102466219854e+03 1.000000000000000000e+01
6.380396681667723897e+03 1.778279410038922848e+01
7.616524843353452525e+03 3.162277660168379256e+01
9.311590081201142311e+03 5.623413251903490817e+01
1.000000000000000000e+04 1.000000000000000000e+02
1.000000000000000000e+04 1.778279410038922776e+02
1.000000000000000000e+04 3.162277660168379612e+02
