# Temperature (K), Pressure (bars)
2.378101996784263065e+03 9.999999999999999547e-07
2.401424266511337919e+03 1.778279410038922901e-06
2.424746536238412773e+03 3.162277660168379191e-06
2.452796039288770316e+03 5.623413251903491208e-06
2.484457979582997723e+03 1.000000000000000082e-05
2.517544780303837342e+03 1.778279410038922901e-05
2.551571986184774687e+03 3.162277660168379530e-05
2.586308660659648012e+03 5.623413251903490700e-05
2.620731912202904823e+03 1.000000000000000048e-04
2.652727139834433274e+03 1.778279410038922698e-04
2.680343038634243385e+03 3.162277660168379394e-04
2.703704653947923362e+03 5.623413251903490971e-04
2.726271250357136068e+03 1.000000000000000021e-03
2.754171603448703536e+03 1.778279410038922752e-03
2.793719559226220554e+03 3.162277660168379394e-03
2.848452636562556108e+03 5.623413251903490971e-03
2.920370357162420532e+03 1.000000000000000021e-02
3.009895529958485895e+03 1.778279410038922925e-02
3.120288529991540599e+03 3.162277660168379134e-02
3.259448027906305470e+03 5.623413251903491145e-02
3.429522197444646281e+03 1.000000000000000056e-01
3.627247228775910116e+03 1.778279410038922925e-01
3.865454803076639564e+03 3.162277660168379412e-01
4.141730009029261964e+03 5.623413251903490728e-01
4.498399178247229429e+03 1.000000000000000000e+00
5.007133170167398021e+03 1.778279410038922759e+00
5.814538836003787765e+03 3.162277660168379523e+00
7.079981017729000087e+03 5.623413251903491172e+00
8.724611700822157218e+03 1.000000000000000000e+01
1.000000000000000000e+04 1.778279410038922848e+01
1.000000000000000000e+04 3.162277660168379256e+01
1.000000000000000000e+04 5.623413251903490817e+01
1.000000000000000000e+04 1.000000000000000000e+02
1.000000000000000000e+04 1.778279410038922776e+02
1.000000000000000000e+04 3.162277660168379612e+02
