# Temperature (K), Pressure (bars)
9.508108775814649789e+02 3.162277660168379530e-05
9.980216590945869939e+02 5.623413251903490700e-05
1.045232439500693090e+03 1.000000000000000048e-04
1.086385453263134877e+03 1.778279410038922698e-04
1.125563045756105566e+03 3.162277660168379394e-04
1.186570164162390938e+03 5.623413251903490971e-04
1.280961480645931942e+03 1.000000000000000021e-03
1.398002509138498226e+03 1.778279410038922752e-03
1.535429633270447084e+03 3.162277660168379394e-03
1.652140546049916111e+03 5.623413251903490971e-03
1.720220139187588984e+03 1.000000000000000021e-02
1.770092897351363717e+03 1.778279410038922925e-02
1.827690506205298561e+03 3.162277660168379134e-02
1.894228979263534029e+03 5.623413251903491145e-02
1.971860265962019639e+03 1.000000000000000056e-01
2.062206976030813166e+03 1.778279410038922925e-01
2.184898566141132505e+03 3.162277660168379412e-01
2.374141163840580703e+03 5.623413251903490728e-01
2.600934730343866249e+03 1.000000000000000000e+00
2.825119729477483816e+03 1.778279410038922759e+00
3.046968011070377088e+03 3.162277660168379523e+00
3.271612409937775283e+03 5.623413251903491172e+00
3.504186056206043759e+03 1.000000000000000000e+01
3.750451912602137327e+03 1.778279410038922848e+01
4.018185431840171987e+03 3.162277660168379256e+01
4.312919813775791226e+03 5.623413251903490817e+01
4.641721005440237604e+03 1.000000000000000000e+02
5.008097234074864900e+03 1.778279410038922776e+02
5.432664672492902355e+03 3.162277660168379612e+02
