# Temperature (K), Pressure (bars)
2.358225365314456212e+03 9.999999999999999547e-07
2.380795892676805124e+03 1.778279410038922901e-06
2.403366420045647828e+03 3.162277660168379191e-06
2.423894534215017757e+03 5.623413251903491208e-06
2.444515525734070252e+03 1.000000000000000082e-05
2.465029273797227688e+03 1.778279410038922901e-05
2.483782485973328221e+03 3.162277660168379530e-05
2.498761400771067201e+03 5.623413251903490700e-05
2.507312527269768907e+03 1.000000000000000048e-04
2.512444028787575007e+03 1.778279410038922698e-04
2.525883577724932366e+03 3.162277660168379394e-04
2.558261300513435344e+03 5.623413251903490971e-04
2.610314142412812544e+03 1.000000000000000021e-03
2.677847334248237530e+03 1.778279410038922752e-03
2.758907369968729654e+03 3.162277660168379394e-03
2.854336701030919812e+03 5.623413251903490971e-03
2.966118412550228641e+03 1.000000000000000021e-02
3.096259186113803480e+03 1.778279410038922925e-02
3.246919211202293809e+03 3.162277660168379134e-02
3.424802076078618484e+03 5.623413251903491145e-02
3.649514489833564312e+03 1.000000000000000056e-01
3.910219614437559812e+03 1.778279410038922925e-01
4.264201697848691765e+03 3.162277660168379412e-01
4.823175923656235682e+03 5.623413251903490728e-01
5.759581994725169352e+03 1.000000000000000000e+00
7.123038834239883727e+03 1.778279410038922759e+00
8.729200781461770021e+03 3.162277660168379523e+00
1.036212460069396002e+04 5.623413251903491172e+00
1.220951896392819617e+04 1.000000000000000000e+01
1.455098888678577168e+04 1.778279410038922848e+01
1.750657521468688719e+04 3.162277660168379256e+01
2.121179308304968072e+04 5.623413251903490817e+01
2.580768348888624678e+04 1.000000000000000000e+02
3.141754300121768028e+04 1.778279410038922776e+02
3.810971342442904279e+04 3.162277660168379612e+02
