# Temperature (K), Pressure (bars)
9.168996868322823275e+02 5.623413251903490971e-04
9.561878733617319313e+02 1.000000000000000021e-03
9.954760606008475179e+02 1.778279410038922752e-03
1.035581151809659104e+03 3.162277660168379394e-03
1.077370459822854855e+03 5.623413251903490971e-03
1.120581190629331786e+03 1.000000000000000021e-02
1.165129498311343696e+03 1.778279410038922925e-02
1.211578169404206847e+03 3.162277660168379134e-02
1.262454151548200343e+03 5.623413251903491145e-02
1.326642471619431944e+03 1.000000000000000056e-01
1.422010752476549442e+03 1.778279410038922925e-01
1.558595831564703758e+03 3.162277660168379412e-01
1.739795443424920904e+03 5.623413251903490728e-01
1.978965844301998231e+03 1.000000000000000000e+00
2.259003240620541419e+03 1.778279410038922759e+00
2.538173445298754359e+03 3.162277660168379523e+00
2.804114918277473862e+03 5.623413251903491172e+00
3.063452110442731737e+03 1.000000000000000000e+01
3.323007563018770270e+03 1.778279410038922848e+01
3.592281834509177770e+03 3.162277660168379256e+01
3.877672247984076421e+03 5.623413251903490817e+01
4.186215783167217523e+03 1.000000000000000000e+02
4.521348099883422037e+03 1.778279410038922776e+02
4.899778899048902531e+03 3.162277660168379612e+02
