# Temperature (K), Pressure (bars)
2.189565592603467394e+03 3.162277660168379191e-06
2.206311252692791641e+03 5.623413251903491208e-06
2.223056914044123914e+03 1.000000000000000082e-05
2.244801541322700814e+03 1.778279410038922901e-05
2.271933322830383986e+03 3.162277660168379530e-05
2.303717502339185558e+03 5.623413251903490700e-05
2.343267290385297201e+03 1.000000000000000048e-04
2.393015029706037694e+03 1.778279410038922698e-04
2.453053318663870414e+03 3.162277660168379394e-04
2.521427492379795694e+03 5.623413251903490971e-04
2.595736575928233378e+03 1.000000000000000021e-03
2.674661891043134347e+03 1.778279410038922752e-03
2.756306350392514105e+03 3.162277660168379394e-03
2.836241022014178270e+03 5.623413251903490971e-03
2.908917454839905076e+03 1.000000000000000021e-02
2.970212623964918293e+03 1.778279410038922925e-02
3.022335912738197294e+03 3.162277660168379134e-02
3.062808210145887188e+03 5.623413251903491145e-02
3.130423534510957325e+03 1.000000000000000056e-01
3.275321345597640175e+03 1.778279410038922925e-01
3.461094993248577339e+03 3.162277660168379412e-01
3.660810859193207762e+03 5.623413251903490728e-01
3.891634508900237961e+03 1.000000000000000000e+00
4.159334990571394883e+03 1.778279410038922759e+00
4.473404741705096967e+03 3.162277660168379523e+00
4.831766682255723936e+03 5.623413251903491172e+00
5.285356992716887362e+03 1.000000000000000000e+01
5.897938152783318401e+03 1.778279410038922848e+01
6.793006507052696179e+03 3.162277660168379256e+01
8.128727360438859250e+03 5.623413251903490817e+01
9.916931222399012768e+03 1.000000000000000000e+02
1.000000000000000000e+04 1.778279410038922776e+02
1.000000000000000000e+04 3.162277660168379612e+02
