# Temperature (K), Pressure (bars)
2.465384482433214544e+03 9.999999999999999547e-07
2.480927082702719417e+03 1.778279410038922901e-06
2.496469682972224746e+03 3.162277660168379191e-06
2.524533765409571515e+03 5.623413251903491208e-06
2.558085765559896117e+03 1.000000000000000082e-05
2.591766149453376329e+03 1.778279410038922901e-05
2.626527121784640258e+03 3.162277660168379530e-05
2.663330148931055646e+03 5.623413251903490700e-05
2.703299940324544423e+03 1.000000000000000048e-04
2.746951546539264200e+03 1.778279410038922698e-04
2.794259129344303346e+03 3.162277660168379394e-04
2.843994226002676896e+03 5.623413251903490971e-04
2.893071234082422961e+03 1.000000000000000021e-03
2.937490175215228192e+03 1.778279410038922752e-03
2.974034349779655258e+03 3.162277660168379394e-03
3.005012314477221025e+03 5.623413251903490971e-03
3.040333077404905907e+03 1.000000000000000021e-02
3.092758327694241871e+03 1.778279410038922925e-02
3.163862855410127850e+03 3.162277660168379134e-02
3.254027523264920546e+03 5.623413251903491145e-02
3.383571577317110496e+03 1.000000000000000056e-01
3.563519705974379121e+03 1.778279410038922925e-01
3.779696936712045044e+03 3.162277660168379412e-01
4.041312557726769228e+03 5.623413251903490728e-01
4.348663366423322259e+03 1.000000000000000000e+00
4.752933447897287806e+03 1.778279410038922759e+00
5.343972896293173108e+03 3.162277660168379523e+00
6.299229175067265714e+03 5.623413251903491172e+00
7.724982740936102346e+03 1.000000000000000000e+01
9.469634521749625492e+03 1.778279410038922848e+01
1.000000000000000000e+04 3.162277660168379256e+01
1.000000000000000000e+04 5.623413251903490817e+01
1.000000000000000000e+04 1.000000000000000000e+02
1.000000000000000000e+04 1.778279410038922776e+02
1.000000000000000000e+04 3.162277660168379612e+02
