# Temperature (K), Pressure (bars)
1.082153692868488633e+03 3.162277660168379530e-05
1.123852211809512028e+03 5.623413251903490700e-05
1.165550733265839426e+03 1.000000000000000048e-04
1.211103426376869720e+03 1.778279410038922698e-04
1.261033038443970781e+03 3.162277660168379394e-04
1.316096674578560624e+03 5.623413251903490971e-04
1.377747356139312615e+03 1.000000000000000021e-03
1.442587954173720163e+03 1.778279410038922752e-03
1.513412797353660608e+03 3.162277660168379394e-03
1.599421414898401508e+03 5.623413251903490971e-03
1.690733358653372534e+03 1.000000000000000021e-02
1.781382689365632359e+03 1.778279410038922925e-02
1.880605752562425096e+03 3.162277660168379134e-02
2.007054977850551268e+03 5.623413251903491145e-02
2.182363079222803208e+03 1.000000000000000056e-01
2.386647774364320867e+03 1.778279410038922925e-01
2.586895687552272193e+03 3.162277660168379412e-01
2.780267631209453157e+03 5.623413251903490728e-01
2.973733404649750810e+03 1.000000000000000000e+00
3.171429119928239288e+03 1.778279410038922759e+00
3.376527773067737144e+03 3.162277660168379523e+00
3.592965720016025443e+03 5.623413251903491172e+00
3.825544053844729206e+03 1.000000000000000000e+01
4.079643209790933270e+03 1.778279410038922848e+01
4.363368358438738142e+03 3.162277660168379256e+01
4.682753186757913682e+03 5.623413251903490817e+01
5.046732583034001436e+03 1.000000000000000000e+02
5.459705841954139942e+03 1.778279410038922776e+02
5.950787210482300907e+03 3.162277660168379612e+02
