# Temperature (K), Pressure (bars)
2.064778323838334472e+03 9.999999999999999547e-07
2.100772553531621725e+03 1.778279410038922901e-06
2.136766783224908977e+03 3.162277660168379191e-06
2.178952150330576387e+03 5.623413251903491208e-06
2.224375163572695328e+03 1.000000000000000082e-05
2.271178190717071629e+03 1.778279410038922901e-05
2.318815957325195996e+03 3.162277660168379530e-05
2.365252190606984641e+03 5.623413251903490700e-05
2.409186586145433466e+03 1.000000000000000048e-04
2.450468369527980030e+03 1.778279410038922698e-04
2.489481987188616586e+03 3.162277660168379394e-04
2.527925175715494333e+03 5.623413251903490971e-04
2.569125596049053911e+03 1.000000000000000021e-03
2.617362030220265297e+03 1.778279410038922752e-03
2.672624268989368375e+03 3.162277660168379394e-03
2.733069626024724585e+03 5.623413251903490971e-03
2.785348344358815211e+03 1.000000000000000021e-02
2.843456473916413415e+03 1.778279410038922925e-02
2.951771082753507017e+03 3.162277660168379134e-02
3.101225174481714021e+03 5.623413251903491145e-02
3.272714668570876711e+03 1.000000000000000056e-01
3.477738184048532730e+03 1.778279410038922925e-01
3.686777503211793828e+03 3.162277660168379412e-01
3.928049148094598422e+03 5.623413251903490728e-01
4.212444035688125041e+03 1.000000000000000000e+00
4.548324963171320633e+03 1.778279410038922759e+00
4.991439179818017692e+03 3.162277660168379523e+00
5.634308495520577708e+03 5.623413251903491172e+00
6.649169214479870789e+03 1.000000000000000000e+01
8.140812674865184817e+03 1.778279410038922848e+01
9.950009141352486040e+03 3.162277660168379256e+01
1.000000000000000000e+04 5.623413251903490817e+01
1.000000000000000000e+04 1.000000000000000000e+02
1.000000000000000000e+04 1.778279410038922776e+02
1.000000000000000000e+04 3.162277660168379612e+02
