# Temperature (K), Pressure (bars)
9.256319652748979934e+02 5.623413251903490700e-05
9.691743924658939022e+02 1.000000000000000048e-04
1.012716820509397053e+03 1.778279410038922698e-04
1.056933953258543852e+03 3.162277660168379394e-04
1.103875758695275636e+03 5.623413251903490971e-04
1.153577157868036693e+03 1.000000000000000021e-03
1.205815742725459586e+03 1.778279410038922752e-03
1.261058129253467769e+03 3.162277660168379394e-03
1.322242375098252751e+03 5.623413251903490971e-03
1.399421189535795747e+03 1.000000000000000021e-02
1.518597134514286608e+03 1.778279410038922925e-02
1.680495396381958926e+03 3.162277660168379134e-02
1.869996817427497035e+03 5.623413251903491145e-02
2.092989664209440434e+03 1.000000000000000056e-01
2.323395640355445721e+03 1.778279410038922925e-01
2.536034819022576812e+03 3.162277660168379412e-01
2.738344905460378868e+03 5.623413251903490728e-01
2.936564534789801655e+03 1.000000000000000000e+00
3.135629210880185838e+03 1.778279410038922759e+00
3.340213262008550373e+03 3.162277660168379523e+00
3.555314820682377103e+03 5.623413251903491172e+00
3.785975352380262393e+03 1.000000000000000000e+01
4.037532671939181910e+03 1.778279410038922848e+01
4.318108040458881987e+03 3.162277660168379256e+01
4.633106097160745776e+03 5.623413251903490817e+01
4.991047488235199125e+03 1.000000000000000000e+02
5.395762794755078176e+03 1.778279410038922776e+02
5.875088409388935361e+03 3.162277660168379612e+02
