# Temperature (K), Pressure (bars)
9.555892025798128770e+02 1.000000000000000048e-04
1.013909934747251668e+03 1.778279410038922698e-04
1.072230667485711820e+03 3.162277660168379394e-04
1.123598302835180220e+03 5.623413251903490971e-04
1.172902832159427135e+03 1.000000000000000021e-03
1.218798501787109672e+03 1.778279410038922752e-03
1.256731914849019859e+03 3.162277660168379394e-03
1.289150392385136911e+03 5.623413251903490971e-03
1.321468339815200125e+03 1.000000000000000021e-02
1.356311222931562497e+03 1.778279410038922925e-02
1.390207393614026159e+03 3.162277660168379134e-02
1.441155309504029674e+03 5.623413251903491145e-02
1.536793981437804860e+03 1.000000000000000056e-01
1.682443160537721042e+03 1.778279410038922925e-01
1.852395138164691161e+03 3.162277660168379412e-01
2.038122836965728311e+03 5.623413251903490728e-01
2.271803047657358547e+03 1.000000000000000000e+00
2.531730719298469467e+03 1.778279410038922759e+00
2.781397068032834341e+03 3.162277660168379523e+00
3.024838458037756027e+03 5.623413251903491172e+00
3.268085490307826603e+03 1.000000000000000000e+01
3.518128458029655121e+03 1.778279410038922848e+01
3.783636164532084422e+03 3.162277660168379256e+01
4.070430863691730337e+03 5.623413251903490817e+01
4.385257323679292313e+03 1.000000000000000000e+02
4.731384623671028749e+03 1.778279410038922776e+02
5.126633103278849376e+03 3.162277660168379612e+02
