# Temperature (K), Pressure (bars)
8.609154700450728797e+02 1.778279410038922901e-05
9.042197603261092809e+02 3.162277660168379530e-05
9.475240499710565700e+02 5.623413251903490700e-05
9.908553856560752138e+02 1.000000000000000048e-04
1.038712140533265938e+03 1.778279410038922698e-04
1.089269654843069247e+03 3.162277660168379394e-04
1.137956126078762736e+03 5.623413251903490971e-04
1.182302678231506661e+03 1.000000000000000021e-03
1.218879962105072082e+03 1.778279410038922752e-03
1.251024332297139608e+03 3.162277660168379394e-03
1.285572704247475258e+03 5.623413251903490971e-03
1.327197775859678586e+03 1.000000000000000021e-02
1.378497908854772732e+03 1.778279410038922925e-02
1.424996258959723036e+03 3.162277660168379134e-02
1.514034373245406869e+03 5.623413251903491145e-02
1.715414416023081912e+03 1.000000000000000056e-01
1.976169526635962029e+03 1.778279410038922925e-01
2.232192494117703518e+03 3.162277660168379412e-01
2.475552974796567469e+03 5.623413251903490728e-01
2.702722754402111150e+03 1.000000000000000000e+00
2.919031564536198402e+03 1.778279410038922759e+00
3.132399519278993921e+03 3.162277660168379523e+00
3.350281185148955046e+03 5.623413251903491172e+00
3.578915822057488185e+03 1.000000000000000000e+01
3.823997661721118675e+03 1.778279410038922848e+01
4.093613526636040206e+03 3.162277660168379256e+01
4.392138362840340960e+03 5.623413251903490817e+01
4.726748221264681888e+03 1.000000000000000000e+02
5.100648360463088466e+03 1.778279410038922776e+02
5.535980884332430833e+03 3.162277660168379612e+02
