# Temperature (K), Pressure (bars)
7.219889440183166016e+02 9.999999999999999547e-07
7.423044776210526834e+02 1.778279410038922901e-06
7.626200112350834388e+02 3.162277660168379191e-06
7.854327193262722631e+02 5.623413251903491208e-06
8.123703375773434345e+02 1.000000000000000082e-05
8.424642933615955371e+02 1.778279410038922901e-05
8.754841039765502728e+02 3.162277660168379530e-05
9.119352797477619106e+02 5.623413251903490700e-05
9.512951837801667807e+02 1.000000000000000048e-04
9.937701019262531190e+02 1.778279410038922698e-04
1.039401538942100160e+03 3.162277660168379394e-04
1.087840129417172420e+03 5.623413251903490971e-04
1.139884216197760907e+03 1.000000000000000021e-03
1.197208725991815754e+03 1.778279410038922752e-03
1.261948890002444841e+03 3.162277660168379394e-03
1.338517645485794219e+03 5.623413251903490971e-03
1.431520566846935708e+03 1.000000000000000021e-02
1.561537946559827333e+03 1.778279410038922925e-02
1.757558115644195368e+03 3.162277660168379134e-02
2.000156526197524272e+03 5.623413251903491145e-02
2.240305182289092954e+03 1.000000000000000056e-01
2.458879884636663064e+03 1.778279410038922925e-01
2.660509029756679865e+03 3.162277660168379412e-01
2.852801866844554297e+03 5.623413251903490728e-01
3.042444077006543921e+03 1.000000000000000000e+00
3.235235952728601660e+03 1.778279410038922759e+00
3.436481976139181370e+03 3.162277660168379523e+00
3.651007173789841545e+03 5.623413251903491172e+00
3.883526954714565363e+03 1.000000000000000000e+01
4.139129051583809996e+03 1.778279410038922848e+01
4.423761535318393726e+03 3.162277660168379256e+01
4.745248435857181903e+03 5.623413251903490817e+01
5.118353963875862064e+03 1.000000000000000000e+02
5.551402220517703427e+03 1.778279410038922776e+02
6.061909699406293839e+03 3.162277660168379612e+02
