# Temperature (K), Pressure (bars)
1.754186681656929750e+03 9.999999999999999547e-07
1.761696983472834063e+03 1.778279410038922901e-06
1.769207285288944604e+03 3.162277660168379191e-06
1.784287224905468065e+03 5.623413251903491208e-06
1.813042048007367157e+03 1.000000000000000082e-05
1.851142745953772419e+03 1.778279410038922901e-05
1.892591752556503479e+03 3.162277660168379530e-05
1.935910828694747124e+03 5.623413251903490700e-05
1.979072866236488153e+03 1.000000000000000048e-04
2.021511775074140587e+03 1.778279410038922698e-04
2.063308989363497403e+03 3.162277660168379394e-04
2.104908737354626282e+03 5.623413251903490971e-04
2.148467916194005738e+03 1.000000000000000021e-03
2.195105685247518068e+03 1.778279410038922752e-03
2.247036475695882473e+03 3.162277660168379394e-03
2.305725250137714283e+03 5.623413251903490971e-03
2.378483322066351320e+03 1.000000000000000021e-02
2.478453489893902770e+03 1.778279410038922925e-02
2.601036558228126978e+03 3.162277660168379134e-02
2.734324620621198392e+03 5.623413251903491145e-02
2.876775652815414105e+03 1.000000000000000056e-01
3.030059332321562579e+03 1.778279410038922925e-01
3.196159731353639472e+03 3.162277660168379412e-01
3.377126166467224721e+03 5.623413251903490728e-01
3.574662132287005079e+03 1.000000000000000000e+00
3.790528012532107823e+03 1.778279410038922759e+00
4.028045010102468495e+03 3.162277660168379523e+00
4.293070764719514045e+03 5.623413251903491172e+00
4.594256351617318614e+03 1.000000000000000000e+01
4.943345057606805312e+03 1.778279410038922848e+01
5.359806035169537608e+03 3.162277660168379256e+01
5.869501117703021919e+03 5.623413251903490817e+01
6.512173933766380287e+03 1.000000000000000000e+02
7.352813343683363200e+03 1.778279410038922776e+02
8.506244753255696196e+03 3.162277660168379612e+02
