# Temperature (K), Pressure (bars)
9.059534250343776876e+02 1.778279410038922901e-05
9.617625679135909422e+02 3.162277660168379530e-05
1.017571710290757437e+03 5.623413251903490700e-05
1.067272928811790280e+03 1.000000000000000048e-04
1.112708155949234197e+03 1.778279410038922698e-04
1.152578438510247452e+03 3.162277660168379394e-04
1.185593088719880825e+03 5.623413251903490971e-04
1.217591266440739219e+03 1.000000000000000021e-03
1.260581184426000164e+03 1.778279410038922752e-03
1.343052808957398156e+03 3.162277660168379394e-03
1.477196771694347035e+03 5.623413251903490971e-03
1.621813628227149366e+03 1.000000000000000021e-02
1.745859739173896742e+03 1.778279410038922925e-02
1.862444202653027560e+03 3.162277660168379134e-02
1.990196537205770937e+03 5.623413251903491145e-02
2.156361075451677607e+03 1.000000000000000056e-01
2.365247013570103718e+03 1.778279410038922925e-01
2.575781314937699335e+03 3.162277660168379412e-01
2.772965522392378261e+03 5.623413251903490728e-01
2.969015269777669346e+03 1.000000000000000000e+00
3.167627291736667758e+03 1.778279410038922759e+00
3.372506976949870477e+03 3.162277660168379523e+00
3.588421155101480963e+03 5.623413251903491172e+00
3.820455128917857110e+03 1.000000000000000000e+01
4.074017924711602518e+03 1.778279410038922848e+01
4.357295098208000127e+03 3.162277660168379256e+01
4.676007428087624248e+03 5.623413251903490817e+01
5.038982847424217653e+03 1.000000000000000000e+02
5.450476662287213912e+03 1.778279410038922776e+02
5.939032816003899825e+03 3.162277660168379612e+02
