# Temperature (K), Pressure (bars)
1.416730620961889144e+03 1.778279410038922901e-06
1.458993535104983721e+03 3.162277660168379191e-06
1.501277675257088731e+03 5.623413251903491208e-06
1.542660633418870020e+03 1.000000000000000082e-05
1.584974517640627482e+03 1.778279410038922901e-05
1.632481577190108283e+03 3.162277660168379530e-05
1.685861558055232535e+03 5.623413251903490700e-05
1.744414207917282056e+03 1.000000000000000048e-04
1.808328345084037210e+03 1.778279410038922698e-04
1.876168287151272125e+03 3.162277660168379394e-04
1.948770340991321973e+03 5.623413251903490971e-04
2.027724002890435258e+03 1.000000000000000021e-03
2.120209767966269283e+03 1.778279410038922752e-03
2.234008214363411753e+03 3.162277660168379394e-03
2.360324493434185570e+03 5.623413251903490971e-03
2.490776126807978471e+03 1.000000000000000021e-02
2.626821445371787831e+03 1.778279410038922925e-02
2.770141324267659911e+03 3.162277660168379134e-02
2.922639733564238668e+03 5.623413251903491145e-02
3.086554325530746610e+03 1.000000000000000056e-01
3.264234057975482756e+03 1.778279410038922925e-01
3.457486744287261899e+03 3.162277660168379412e-01
3.668133007127989458e+03 5.623413251903490728e-01
3.900217216556284257e+03 1.000000000000000000e+00
4.161641588952890743e+03 1.778279410038922759e+00
4.464825657343367311e+03 3.162277660168379523e+00
4.820159627400366844e+03 5.623413251903491172e+00
5.268380989110970404e+03 1.000000000000000000e+01
5.869441907161170093e+03 1.778279410038922848e+01
6.739131462518379521e+03 3.162277660168379256e+01
8.040863164955584580e+03 5.623413251903490817e+01
9.803930973277900193e+03 1.000000000000000000e+02
1.194043532688736741e+04 1.778279410038922776e+02
1.448582071826230276e+04 3.162277660168379612e+02
