# Temperature (K), Pressure (bars)
2.285249272904962254e+03 9.999999999999999547e-07
2.308553889266778242e+03 1.778279410038922901e-06
2.331858505628601051e+03 3.162277660168379191e-06
2.357783627308998803e+03 5.623413251903491208e-06
2.384764977197531152e+03 1.000000000000000082e-05
2.413052011291060808e+03 1.778279410038922901e-05
2.443618458635386105e+03 3.162277660168379530e-05
2.475537731883959168e+03 5.623413251903490700e-05
2.507159411487209582e+03 1.000000000000000048e-04
2.536281242440877577e+03 1.778279410038922698e-04
2.560976770914010103e+03 3.162277660168379394e-04
2.581390264848281731e+03 5.623413251903490971e-04
2.600888407404459031e+03 1.000000000000000021e-03
2.624160548151861803e+03 1.778279410038922752e-03
2.655314194235875220e+03 3.162277660168379394e-03
2.696391694930845915e+03 5.623413251903490971e-03
2.750739376677118798e+03 1.000000000000000021e-02
2.818780760882020331e+03 1.778279410038922925e-02
2.908939858882895351e+03 3.162277660168379134e-02
3.033739566345902858e+03 5.623413251903491145e-02
3.181319934337972882e+03 1.000000000000000056e-01
3.343925760991985953e+03 1.778279410038922925e-01
3.529711403936873467e+03 3.162277660168379412e-01
3.744253865815308018e+03 5.623413251903490728e-01
3.993451281080620902e+03 1.000000000000000000e+00
4.286890596617236952e+03 1.778279410038922759e+00
4.614694557730665110e+03 3.162277660168379523e+00
5.027315232645354627e+03 5.623413251903491172e+00
5.580062434903322355e+03 1.000000000000000000e+01
6.381344517600124163e+03 1.778279410038922848e+01
7.605496606009702191e+03 3.162277660168379256e+01
9.295638622481064886e+03 5.623413251903490817e+01
1.134201217169871779e+04 1.000000000000000000e+02
1.380899380187322458e+04 1.778279410038922776e+02
1.675093503991743637e+04 3.162277660168379612e+02
