# Temperature (K), Pressure (bars)
2.363658504763852761e+03 9.999999999999999547e-07
2.396934010672229761e+03 1.778279410038922901e-06
2.430209516580763193e+03 3.162277660168379191e-06
2.465541509479568049e+03 5.623413251903491208e-06
2.499657412018681043e+03 1.000000000000000082e-05
2.534768013786231677e+03 1.778279410038922901e-05
2.571249892824066592e+03 3.162277660168379530e-05
2.606174803337215053e+03 5.623413251903490700e-05
2.638188398911089280e+03 1.000000000000000048e-04
2.666229983831928621e+03 1.778279410038922698e-04
2.691547240902689737e+03 3.162277660168379394e-04
2.718789218196996444e+03 5.623413251903490971e-04
2.754706196768668633e+03 1.000000000000000021e-03
2.805123813094845445e+03 1.778279410038922752e-03
2.872356041060430016e+03 3.162277660168379394e-03
2.955945950756521142e+03 5.623413251903490971e-03
3.054277525991223229e+03 1.000000000000000021e-02
3.166022337859028084e+03 1.778279410038922925e-02
3.291796827016732550e+03 3.162277660168379134e-02
3.447902976158378806e+03 5.623413251903491145e-02
3.670372940851249496e+03 1.000000000000000056e-01
3.941474460272727811e+03 1.778279410038922925e-01
4.320476497279467367e+03 3.162277660168379412e-01
4.944664839612072683e+03 5.623413251903490728e-01
5.996582744197355169e+03 1.000000000000000000e+00
7.445533094961429015e+03 1.778279410038922759e+00
9.053281023062376335e+03 3.162277660168379523e+00
1.069447441990051811e+04 5.623413251903491172e+00
1.260275237850890881e+04 1.000000000000000000e+01
1.502132116738214063e+04 1.778279410038922848e+01
1.807519514970987802e+04 3.162277660168379256e+01
2.190503071901282601e+04 5.623413251903490817e+01
2.665527574573545644e+04 1.000000000000000000e+02
3.245288838062464129e+04 1.778279410038922776e+02
3.937106779870842001e+04 3.162277660168379612e+02
