# Temperature (K), Pressure (bars)
2.385730336237598749e+03 9.999999999999999547e-07
2.408310595734445997e+03 1.778279410038922901e-06
2.430890855231293699e+03 3.162277660168379191e-06
2.458106895624635399e+03 5.623413251903491208e-06
2.487174902128980193e+03 1.000000000000000082e-05
2.518302654560803603e+03 1.778279410038922901e-05
2.550112001819565648e+03 3.162277660168379530e-05
2.581830341134247647e+03 5.623413251903490700e-05
2.613528119745146796e+03 1.000000000000000048e-04
2.642628014633748080e+03 1.778279410038922698e-04
2.664898034603948417e+03 3.162277660168379394e-04
2.676421890749418708e+03 5.623413251903490971e-04
2.682646907557967552e+03 1.000000000000000021e-03
2.698192433991249800e+03 1.778279410038922752e-03
2.733461780117111630e+03 3.162277660168379394e-03
2.788400957692397242e+03 5.623413251903490971e-03
2.860377103014887325e+03 1.000000000000000021e-02
2.947026722205324404e+03 1.778279410038922925e-02
3.049915942314830772e+03 3.162277660168379134e-02
3.177670043056040413e+03 5.623413251903491145e-02
3.333282858127501186e+03 1.000000000000000056e-01
3.517364825580204524e+03 1.778279410038922925e-01
3.724614150803916345e+03 3.162277660168379412e-01
3.970397437762865593e+03 5.623413251903490728e-01
4.251401816715168934e+03 1.000000000000000000e+00
4.604826898028578398e+03 1.778279410038922759e+00
5.084724454963069547e+03 3.162277660168379523e+00
5.810575401667359074e+03 5.623413251903491172e+00
6.966529887370203141e+03 1.000000000000000000e+01
8.566900375962353792e+03 1.778279410038922848e+01
1.000000000000000000e+04 3.162277660168379256e+01
1.000000000000000000e+04 5.623413251903490817e+01
1.000000000000000000e+04 1.000000000000000000e+02
1.000000000000000000e+04 1.778279410038922776e+02
1.000000000000000000e+04 3.162277660168379612e+02
