# Temperature (K), Pressure (bars)
2.242516873701599252e+03 9.999999999999999547e-07
2.265050231043480380e+03 1.778279410038922901e-06
2.287583588385360599e+03 3.162277660168379191e-06
2.311311739980395487e+03 5.623413251903491208e-06
2.336889011278874477e+03 1.000000000000000082e-05
2.365251094558274417e+03 1.778279410038922901e-05
2.395752310935700280e+03 3.162277660168379530e-05
2.427686603247262610e+03 5.623413251903490700e-05
2.460209400073468260e+03 1.000000000000000048e-04
2.491058635752142436e+03 1.778279410038922698e-04
2.518052391818924661e+03 3.162277660168379394e-04
2.542422591431015007e+03 5.623413251903490971e-04
2.570210892272109049e+03 1.000000000000000021e-03
2.608817934360729851e+03 1.778279410038922752e-03
2.660021783989514915e+03 3.162277660168379394e-03
2.716283131712771137e+03 5.623413251903490971e-03
2.762835994469435718e+03 1.000000000000000021e-02
2.801781432482242963e+03 1.778279410038922925e-02
2.874998946036762391e+03 3.162277660168379134e-02
3.002205272512626379e+03 5.623413251903491145e-02
3.153030268363774667e+03 1.000000000000000056e-01
3.316331426132049728e+03 1.778279410038922925e-01
3.503107380052590543e+03 3.162277660168379412e-01
3.718490519930639948e+03 5.623413251903490728e-01
3.966633910128699426e+03 1.000000000000000000e+00
4.255371268546837200e+03 1.778279410038922759e+00
4.573285953030414930e+03 3.162277660168379523e+00
4.969037137409068237e+03 5.623413251903491172e+00
5.491996101090724551e+03 1.000000000000000000e+01
6.243491684662164516e+03 1.778279410038922848e+01
7.388182206275100725e+03 3.162277660168379256e+01
9.006263084013533444e+03 5.623413251903490817e+01
1.000000000000000000e+04 1.000000000000000000e+02
1.000000000000000000e+04 1.778279410038922776e+02
1.000000000000000000e+04 3.162277660168379612e+02
