# Temperature (K), Pressure (bars)
1.039134679956418722e+03 1.000000000000000048e-04
1.081755619464114034e+03 1.778279410038922698e-04
1.124376560998911600e+03 3.162277660168379394e-04
1.166965275269002404e+03 5.623413251903490971e-04
1.211595179336377441e+03 1.000000000000000021e-03
1.258981681259803509e+03 1.778279410038922752e-03
1.309272063419742153e+03 3.162277660168379394e-03
1.363758058409713612e+03 5.623413251903490971e-03
1.423727824854853452e+03 1.000000000000000021e-02
1.493425142411643492e+03 1.778279410038922925e-02
1.575552967509433984e+03 3.162277660168379134e-02
1.672846036340821001e+03 5.623413251903491145e-02
1.796994874769163971e+03 1.000000000000000056e-01
1.937358527588148718e+03 1.778279410038922925e-01
2.103034711359354333e+03 3.162277660168379412e-01
2.323241397767469607e+03 5.623413251903490728e-01
2.563016220681162849e+03 1.000000000000000000e+00
2.790373421707525722e+03 1.778279410038922759e+00
3.013703461979910571e+03 3.162277660168379523e+00
3.239270770051890395e+03 5.623413251903491172e+00
3.472406249976776962e+03 1.000000000000000000e+01
3.718615688553300060e+03 1.778279410038922848e+01
3.985491551639335285e+03 3.162277660168379256e+01
4.278513496614384167e+03 5.623413251903490817e+01
4.604675179366487100e+03 1.000000000000000000e+02
4.967093465626164289e+03 1.778279410038922776e+02
5.386570960028856462e+03 3.162277660168379612e+02
