# Temperature (K), Pressure (bars)
9.181537154723114327e+02 3.162277660168379394e-04
9.660631738357510585e+02 5.623413251903490971e-04
1.013972631564859512e+03 1.000000000000000021e-03
1.053874417202399627e+03 1.778279410038922752e-03
1.087171469074238985e+03 3.162277660168379394e-03
1.117486801956078352e+03 5.623413251903490971e-03
1.146449190223993128e+03 1.000000000000000021e-02
1.176128581162491855e+03 1.778279410038922925e-02
1.209089068168669428e+03 3.162277660168379134e-02
1.247606863067089080e+03 5.623413251903491145e-02
1.294314235936386922e+03 1.000000000000000056e-01
1.354249810739111808e+03 1.778279410038922925e-01
1.428815366466643354e+03 3.162277660168379412e-01
1.511499423137923486e+03 5.623413251903490728e-01
1.611333128740623579e+03 1.000000000000000000e+00
1.753981248333710028e+03 1.778279410038922759e+00
1.972788492849235126e+03 3.162277660168379523e+00
2.266306778569399739e+03 5.623413251903491172e+00
2.574778331750807865e+03 1.000000000000000000e+01
2.869902292745053273e+03 1.778279410038922848e+01
3.165536020510733579e+03 3.162277660168379256e+01
3.464931551147069513e+03 5.623413251903490817e+01
3.775825270263187122e+03 1.000000000000000000e+02
4.103551461142207700e+03 1.778279410038922776e+02
4.462670918371824882e+03 3.162277660168379612e+02
