# Temperature (K), Pressure (bars)
9.708041996571680556e+02 1.000000000000000048e-04
1.028909940856005051e+03 1.778279410038922698e-04
1.087015683367701513e+03 3.162277660168379394e-04
1.143293434621786218e+03 5.623413251903490971e-04
1.199332851467395585e+03 1.000000000000000021e-03
1.257061634018407176e+03 1.778279410038922752e-03
1.318858987813810472e+03 3.162277660168379394e-03
1.387265213597431512e+03 5.623413251903490971e-03
1.466657651324573408e+03 1.000000000000000021e-02
1.561669262108125849e+03 1.778279410038922925e-02
1.694050762305367016e+03 3.162277660168379134e-02
1.891545944022491994e+03 5.623413251903491145e-02
2.128063633475595452e+03 1.000000000000000056e-01
2.356384715803947529e+03 1.778279410038922925e-01
2.566379612661639840e+03 3.162277660168379412e-01
2.765854421336123323e+03 5.623413251903490728e-01
2.961615743982281856e+03 1.000000000000000000e+00
3.159038269726737781e+03 1.778279410038922759e+00
3.362809300707051079e+03 3.162277660168379523e+00
3.577686418265738666e+03 5.623413251903491172e+00
3.808563164239007619e+03 1.000000000000000000e+01
4.060707426833012505e+03 1.778279410038922848e+01
4.342302996520652414e+03 3.162277660168379256e+01
4.658789702998205939e+03 5.623413251903490817e+01
5.018795047760827401e+03 1.000000000000000000e+02
5.426565888874349184e+03 1.778279410038922776e+02
5.910127174958495743e+03 3.162277660168379612e+02
