# Temperature (K), Pressure (bars)
9.848426784749586886e+02 5.623413251903491208e-06
1.036257713539517681e+03 1.000000000000000082e-05
1.087802537530766358e+03 1.778279410038922901e-05
1.138886052971837216e+03 3.162277660168379530e-05
1.190801956895581952e+03 5.623413251903490700e-05
1.244916235344386905e+03 1.000000000000000048e-04
1.301586404620440589e+03 1.778279410038922698e-04
1.362287260063302256e+03 3.162277660168379394e-04
1.429085741679361035e+03 5.623413251903490971e-04
1.504894363006417962e+03 1.000000000000000021e-03
1.594348949025778211e+03 1.778279410038922752e-03
1.707961167761458910e+03 3.162277660168379394e-03
1.865865836422493885e+03 5.623413251903490971e-03
2.062101901208793606e+03 1.000000000000000021e-02
2.259575913579294138e+03 1.778279410038922925e-02
2.442507780723781707e+03 3.162277660168379134e-02
2.617198014095562030e+03 5.623413251903491145e-02
2.788633059614484409e+03 1.000000000000000056e-01
2.960461798394946527e+03 1.778279410038922925e-01
3.135488940560747324e+03 3.162277660168379412e-01
3.316374108435491053e+03 5.623413251903490728e-01
3.506551404196479325e+03 1.000000000000000000e+00
3.710438320465736979e+03 1.778279410038922759e+00
3.933084283354704439e+03 3.162277660168379523e+00
4.180230580952982564e+03 5.623413251903491172e+00
4.458931788214357766e+03 1.000000000000000000e+01
4.778779902355705417e+03 1.778279410038922848e+01
5.155868308392540712e+03 3.162277660168379256e+01
5.606831308152764905e+03 5.623413251903490817e+01
6.160365817650924328e+03 1.000000000000000000e+02
6.860489897732800273e+03 1.778279410038922776e+02
7.776197369998975773e+03 3.162277660168379612e+02
