# Temperature (K), Pressure (bars)
1.327933466309300456e+03 9.999999999999999547e-07
1.413703464717390943e+03 1.778279410038922901e-06
1.499473463126476645e+03 3.162277660168379191e-06
1.576309761255889953e+03 5.623413251903491208e-06
1.639073673926978245e+03 1.000000000000000082e-05
1.693624928205916149e+03 1.778279410038922901e-05
1.745524656316505116e+03 3.162277660168379530e-05
1.799287132896044795e+03 5.623413251903490700e-05
1.856146392243534592e+03 1.000000000000000048e-04
1.914296611109341939e+03 1.778279410038922698e-04
1.974598070664417264e+03 3.162277660168379394e-04
2.039874254409616242e+03 5.623413251903490971e-04
2.112103775247429894e+03 1.000000000000000021e-03
2.197259867750965441e+03 1.778279410038922752e-03
2.302112034476526787e+03 3.162277660168379394e-03
2.420729611087323974e+03 5.623413251903490971e-03
2.546502174085867864e+03 1.000000000000000021e-02
2.680182018873972993e+03 1.778279410038922925e-02
2.823504515867525697e+03 3.162277660168379134e-02
2.978827082676644750e+03 5.623413251903491145e-02
3.148645013330472921e+03 1.000000000000000056e-01
3.334751830661624354e+03 1.778279410038922925e-01
3.538270653017029872e+03 3.162277660168379412e-01
3.761873752130386947e+03 5.623413251903490728e-01
4.012316006727154672e+03 1.000000000000000000e+00
4.301721449302829569e+03 1.778279410038922759e+00
4.634409523348464063e+03 3.162277660168379523e+00
5.055224221169566590e+03 5.623413251903491172e+00
5.622350256319149594e+03 1.000000000000000000e+01
6.442895109176122787e+03 1.778279410038922848e+01
7.687069267081747967e+03 3.162277660168379256e+01
9.399518421873406623e+03 5.623413251903490817e+01
1.146464597869314639e+04 1.000000000000000000e+02
1.395539904082440262e+04 1.778279410038922776e+02
1.692653518969721699e+04 3.162277660168379612e+02
