# Temperature (K), Pressure (bars)
9.079402332552546113e+02 5.623413251903490700e-05
9.554300462367515365e+02 1.000000000000000048e-04
1.002919860922476460e+03 1.778279410038922698e-04
1.049487628252411696e+03 3.162277660168379394e-04
1.096987675194815438e+03 5.623413251903490971e-04
1.146662754720256999e+03 1.000000000000000021e-03
1.198770602326893368e+03 1.778279410038922752e-03
1.253732271901823651e+03 3.162277660168379394e-03
1.312269707055448180e+03 5.623413251903490971e-03
1.379606536439860065e+03 1.000000000000000021e-02
1.464388416208498029e+03 1.778279410038922925e-02
1.576406672221990902e+03 3.162277660168379134e-02
1.714136005760044554e+03 5.623413251903491145e-02
1.883830147466141398e+03 1.000000000000000056e-01
2.101025303741490461e+03 1.778279410038922925e-01
2.337558684015748440e+03 3.162277660168379412e-01
2.561807975471421742e+03 5.623413251903490728e-01
2.775408539636692240e+03 1.000000000000000000e+00
2.984691574874821072e+03 1.778279410038922759e+00
3.195297414139118700e+03 3.162277660168379523e+00
3.412538496891076647e+03 5.623413251903491172e+00
3.641820945942747130e+03 1.000000000000000000e+01
3.888669146441305202e+03 1.778279410038922848e+01
4.161072204839546430e+03 3.162277660168379256e+01
4.463954755629497413e+03 5.623413251903490817e+01
4.804932894559159649e+03 1.000000000000000000e+02
5.187799817182925835e+03 1.778279410038922776e+02
5.635775926681995770e+03 3.162277660168379612e+02
