# Temperature (K), Pressure (bars)
1.770772661539998353e+03 9.999999999999999547e-07
1.790626047175300300e+03 1.778279410038922901e-06
1.810479432810602020e+03 3.162277660168379191e-06
1.834576621396553037e+03 5.623413251903491208e-06
1.862461915116331284e+03 1.000000000000000082e-05
1.896266143990223554e+03 1.778279410038922901e-05
1.937062852397010147e+03 3.162277660168379530e-05
1.983575626932469959e+03 5.623413251903490700e-05
2.035823658605554328e+03 1.000000000000000048e-04
2.093244451096114972e+03 1.778279410038922698e-04
2.155820561590630859e+03 3.162277660168379394e-04
2.224724367795428861e+03 5.623413251903490971e-04
2.303096628642120322e+03 1.000000000000000021e-03
2.393862068548945899e+03 1.778279410038922752e-03
2.494964773806009362e+03 3.162277660168379394e-03
2.604081952098186775e+03 5.623413251903490971e-03
2.722040926915771706e+03 1.000000000000000021e-02
2.850805544085062593e+03 1.778279410038922925e-02
2.993093336453860502e+03 3.162277660168379134e-02
3.152608986698917761e+03 5.623413251903491145e-02
3.337584047853217726e+03 1.000000000000000056e-01
3.526946924223190763e+03 1.778279410038922925e-01
3.745003588568873056e+03 3.162277660168379412e-01
3.999393085773480834e+03 5.623413251903490728e-01
4.290346687210614618e+03 1.000000000000000000e+00
4.662395623701207114e+03 1.778279410038922759e+00
5.182015010013783467e+03 3.162277660168379523e+00
5.992786000022511871e+03 5.623413251903491172e+00
7.265510924018857622e+03 1.000000000000000000e+01
8.939180218873794729e+03 1.778279410038922848e+01
1.000000000000000000e+04 3.162277660168379256e+01
1.000000000000000000e+04 5.623413251903490817e+01
1.000000000000000000e+04 1.000000000000000000e+02
1.000000000000000000e+04 1.778279410038922776e+02
1.000000000000000000e+04 3.162277660168379612e+02
