# Temperature (K), Pressure (bars)
1.141299160786477842e+03 9.999999999999999547e-07
1.151730008488262229e+03 1.778279410038922901e-06
1.162160856196977420e+03 3.162277660168379191e-06
1.178916398318616530e+03 5.623413251903491208e-06
1.204172309179038393e+03 1.000000000000000082e-05
1.236021014574156652e+03 1.778279410038922901e-05
1.273908290003988441e+03 3.162277660168379530e-05
1.318457384419905793e+03 5.623413251903490700e-05
1.368805532917926712e+03 1.000000000000000048e-04
1.424232531617960831e+03 1.778279410038922698e-04
1.486950589689361095e+03 3.162277660168379394e-04
1.563302732657982233e+03 5.623413251903490971e-04
1.646937663755156336e+03 1.000000000000000021e-03
1.726578986634277953e+03 1.778279410038922752e-03
1.803887020365003764e+03 3.162277660168379394e-03
1.887163758892313808e+03 5.623413251903490971e-03
1.977497778259266397e+03 1.000000000000000021e-02
2.093422333432185042e+03 1.778279410038922925e-02
2.256002989879493725e+03 3.162277660168379134e-02
2.432221484444916314e+03 5.623413251903491145e-02
2.598766342521081697e+03 1.000000000000000056e-01
2.765848659535979550e+03 1.778279410038922925e-01
2.937307173297992449e+03 3.162277660168379412e-01
3.115635547037831202e+03 5.623413251903490728e-01
3.302326196878636893e+03 1.000000000000000000e+00
3.499216946571993503e+03 1.778279410038922759e+00
3.709841754691995448e+03 3.162277660168379523e+00
3.938966909886616577e+03 5.623413251903491172e+00
4.192154236005149869e+03 1.000000000000000000e+01
4.476106006376578989e+03 1.778279410038922848e+01
4.799598197657256605e+03 3.162277660168379256e+01
5.177433692971278106e+03 5.623413251903490817e+01
5.622633153208480508e+03 1.000000000000000000e+02
6.158089337149314815e+03 1.778279410038922776e+02
6.818423390099977041e+03 3.162277660168379612e+02
