# Temperature (K), Pressure (bars)
9.166709421085986378e+02 3.162277660168379394e-04
9.729316705516924912e+02 5.623413251903490971e-04
1.029192400650438003e+03 1.000000000000000021e-03
1.082522570289540454e+03 1.778279410038922752e-03
1.134728202853061021e+03 3.162277660168379394e-03
1.188165219419275900e+03 5.623413251903490971e-03
1.247661989801106301e+03 1.000000000000000021e-02
1.315827678317870095e+03 1.778279410038922925e-02
1.413596514554699297e+03 3.162277660168379134e-02
1.576763923203104014e+03 5.623413251903491145e-02
1.801230447080763042e+03 1.000000000000000056e-01
2.055385233637629426e+03 1.778279410038922925e-01
2.307865241653686553e+03 3.162277660168379412e-01
2.541947031994137433e+03 5.623413251903490728e-01
2.760984773240363666e+03 1.000000000000000000e+00
2.972154008533231718e+03 1.778279410038922759e+00
3.182792301269163090e+03 3.162277660168379523e+00
3.399524413417886080e+03 5.623413251903491172e+00
3.628166737945657587e+03 1.000000000000000000e+01
3.874232492047738106e+03 1.778279410038922848e+01
4.145780868328164615e+03 3.162277660168379256e+01
4.447384638203648137e+03 5.623413251903490817e+01
4.786422413234752639e+03 1.000000000000000000e+02
5.166604294100880907e+03 1.778279410038922776e+02
5.610443874400395543e+03 3.162277660168379612e+02
