# Temperature (K), Pressure (bars)
1.506221731358028592e+03 9.999999999999999547e-07
1.529368878295138302e+03 1.778279410038922901e-06
1.552516025262024868e+03 3.162277660168379191e-06
1.581194658230391269e+03 5.623413251903491208e-06
1.617334821846288378e+03 1.000000000000000082e-05
1.657377464232074544e+03 1.778279410038922901e-05
1.700565771678249803e+03 3.162277660168379530e-05
1.745051533369097115e+03 5.623413251903490700e-05
1.787726591079627269e+03 1.000000000000000048e-04
1.831495223627485757e+03 1.778279410038922698e-04
1.878197001478540415e+03 3.162277660168379394e-04
1.927184786587419694e+03 5.623413251903490971e-04
1.979098897988245881e+03 1.000000000000000021e-03
2.034671483384036037e+03 1.778279410038922752e-03
2.096283729546726136e+03 3.162277660168379394e-03
2.164220623970601082e+03 5.623413251903490971e-03
2.247078918055528902e+03 1.000000000000000021e-02
2.360103673291098858e+03 1.778279410038922925e-02
2.494733000689287110e+03 3.162277660168379134e-02
2.636290312186240044e+03 5.623413251903491145e-02
2.784490478031166731e+03 1.000000000000000056e-01
2.941696102581147898e+03 1.778279410038922925e-01
3.110108931903162102e+03 3.162277660168379412e-01
3.290789873962575712e+03 5.623413251903490728e-01
3.484028756491234162e+03 1.000000000000000000e+00
3.691392314279823040e+03 1.778279410038922759e+00
3.916745734644521690e+03 3.162277660168379523e+00
4.165682530634252544e+03 5.623413251903491172e+00
4.445348073866151026e+03 1.000000000000000000e+01
4.765277909879838262e+03 1.778279410038922848e+01
5.140934926783505034e+03 3.162277660168379256e+01
5.589582983253135353e+03 5.623413251903490817e+01
6.140018367759084867e+03 1.000000000000000000e+02
6.837953397314065114e+03 1.778279410038922776e+02
7.758696741073358680e+03 3.162277660168379612e+02
