# Temperature (K), Pressure (bars)
1.184859293029567652e+03 3.162277660168379394e-04
1.228355657915969687e+03 5.623413251903490971e-04
1.271852025770043838e+03 1.000000000000000021e-03
1.319811301041987008e+03 1.778279410038922752e-03
1.371914120020303471e+03 3.162277660168379394e-03
1.430643178963114906e+03 5.623413251903490971e-03
1.494506721608575390e+03 1.000000000000000021e-02
1.562499715768929264e+03 1.778279410038922925e-02
1.643067942841789318e+03 3.162277660168379134e-02
1.735722944106854584e+03 5.623413251903491145e-02
1.829956703965582392e+03 1.000000000000000056e-01
1.933939640482730965e+03 1.778279410038922925e-01
2.057704718989333287e+03 3.162277660168379412e-01
2.219457069292162942e+03 5.623413251903490728e-01
2.439836213588387636e+03 1.000000000000000000e+00
2.681699653689471234e+03 1.778279410038922759e+00
2.913890724252927612e+03 3.162277660168379523e+00
3.145302291887781394e+03 5.623413251903491172e+00
3.382093169109323753e+03 1.000000000000000000e+01
3.629744228071248926e+03 1.778279410038922848e+01
3.895491060099568131e+03 3.162277660168379256e+01
4.185205746614007694e+03 5.623413251903490817e+01
4.505775992962718192e+03 1.000000000000000000e+02
4.860387193299939099e+03 1.778279410038922776e+02
5.268359539824887179e+03 3.162277660168379612e+02
