# Temperature (K), Pressure (bars)
1.028239915839135847e+03 1.000000000000000048e-04
1.053644696913342614e+03 1.778279410038922698e-04
1.079049481189585549e+03 3.162277660168379394e-04
1.111082663022743418e+03 5.623413251903490971e-04
1.160741491897557353e+03 1.000000000000000021e-03
1.238881875183855527e+03 1.778279410038922752e-03
1.349898909506993277e+03 3.162277660168379394e-03
1.497889129640634110e+03 5.623413251903490971e-03
1.619582870343949253e+03 1.000000000000000021e-02
1.678204953861496506e+03 1.778279410038922925e-02
1.714588181717208272e+03 3.162277660168379134e-02
1.750180850394158369e+03 5.623413251903491145e-02
1.788235279880807411e+03 1.000000000000000056e-01
1.834519322803179193e+03 1.778279410038922925e-01
1.890599613366983476e+03 3.162277660168379412e-01
1.959980432205394663e+03 5.623413251903490728e-01
2.046021678958087250e+03 1.000000000000000000e+00
2.168712037133167541e+03 1.778279410038922759e+00
2.377339683546819288e+03 3.162277660168379523e+00
2.658376306557855514e+03 5.623413251903491172e+00
2.941866388057766017e+03 1.000000000000000000e+01
3.211731274574687632e+03 1.778279410038922848e+01
3.486041686253878197e+03 3.162277660168379256e+01
3.773100531386440252e+03 5.623413251903490817e+01
4.080418901435598400e+03 1.000000000000000000e+02
4.411858601805463877e+03 1.778279410038922776e+02
4.783386414554370276e+03 3.162277660168379612e+02
