# Temperature (K), Pressure (bars)
1.577060698870085844e+03 3.162277660168379191e-06
1.589339086953432798e+03 5.623413251903491208e-06
1.610531703084976471e+03 1.000000000000000082e-05
1.638202708669603453e+03 1.778279410038922901e-05
1.671772923411730972e+03 3.162277660168379530e-05
1.712181123094651184e+03 5.623413251903490700e-05
1.757767949034950107e+03 1.000000000000000048e-04
1.808401241248205224e+03 1.778279410038922698e-04
1.863414334277169246e+03 3.162277660168379394e-04
1.921441997701107994e+03 5.623413251903490971e-04
1.982355833479320609e+03 1.000000000000000021e-03
2.047035951364038738e+03 1.778279410038922752e-03
2.116353009343873964e+03 3.162277660168379394e-03
2.194073672194298524e+03 5.623413251903490971e-03
2.293390228177230711e+03 1.000000000000000021e-02
2.417860304528358029e+03 1.778279410038922925e-02
2.553367252023975198e+03 3.162277660168379134e-02
2.693343542891189827e+03 5.623413251903491145e-02
2.840667814744528641e+03 1.000000000000000056e-01
2.997232778821867669e+03 1.778279410038922925e-01
3.165054251281725556e+03 3.162277660168379412e-01
3.346040644444891313e+03 5.623413251903490728e-01
3.541659819132559733e+03 1.000000000000000000e+00
3.753740921328695549e+03 1.778279410038922759e+00
3.985893107237197910e+03 3.162277660168379523e+00
4.243946378341213858e+03 5.623413251903491172e+00
4.535955627553076738e+03 1.000000000000000000e+01
4.873044745462400897e+03 1.778279410038922848e+01
5.272259547146641125e+03 3.162277660168379256e+01
5.756438145952113700e+03 5.623413251903490817e+01
6.361150511408537568e+03 1.000000000000000000e+02
7.144251284437424147e+03 1.778279410038922776e+02
8.205322659521827518e+03 3.162277660168379612e+02
