# Temperature (K), Pressure (bars)
1.068200067555100304e+03 3.162277660168379394e-04
1.109443462937952745e+03 5.623413251903490971e-04
1.150686860509832513e+03 1.000000000000000021e-03
1.194797623972260681e+03 1.778279410038922752e-03
1.242561145220374328e+03 3.162277660168379394e-03
1.293056810658026052e+03 5.623413251903490971e-03
1.345690238575719377e+03 1.000000000000000021e-02
1.401793827626560415e+03 1.778279410038922925e-02
1.463729570357636248e+03 3.162277660168379134e-02
1.537103188265192102e+03 5.623413251903491145e-02
1.625897703290632535e+03 1.000000000000000056e-01
1.735548012821709563e+03 1.778279410038922925e-01
1.878495854007848720e+03 3.162277660168379412e-01
2.050051002230146423e+03 5.623413251903490728e-01
2.259725993586963341e+03 1.000000000000000000e+00
2.516059422911069760e+03 1.778279410038922759e+00
2.775594182331653883e+03 3.162277660168379523e+00
3.019034958657495281e+03 5.623413251903491172e+00
3.262422605270971417e+03 1.000000000000000000e+01
3.513043610679779704e+03 1.778279410038922848e+01
3.778677860414569295e+03 3.162277660168379256e+01
4.065338391182152463e+03 5.623413251903490817e+01
4.379841248590812029e+03 1.000000000000000000e+02
4.725261985067973001e+03 1.778279410038922776e+02
5.119935649586494947e+03 3.162277660168379612e+02
