# Temperature (K), Pressure (bars)
8.596887896582331905e+02 5.623413251903490700e-05
9.182480787015931583e+02 1.000000000000000048e-04
9.768073702117352468e+02 1.778279410038922698e-04
1.035705961358884451e+03 3.162277660168379394e-04
1.093614827448229562e+03 5.623413251903490971e-04
1.146774651605116333e+03 1.000000000000000021e-03
1.195817486944052007e+03 1.778279410038922752e-03
1.243302066999350018e+03 3.162277660168379394e-03
1.286479892483161393e+03 5.623413251903490971e-03
1.322297159857462020e+03 1.000000000000000021e-02
1.355435960548627691e+03 1.778279410038922925e-02
1.392422192739345519e+03 3.162277660168379134e-02
1.430957205868493475e+03 5.623413251903491145e-02
1.483305621964833790e+03 1.000000000000000056e-01
1.575247406887595162e+03 1.778279410038922925e-01
1.715261936133506424e+03 3.162277660168379412e-01
1.881102718003066457e+03 5.623413251903490728e-01
2.081479107972370912e+03 1.000000000000000000e+00
2.346410967136270756e+03 1.778279410038922759e+00
2.626631391599968993e+03 3.162277660168379523e+00
2.885216982945986274e+03 5.623413251903491172e+00
3.138604482195011315e+03 1.000000000000000000e+01
3.394565474209562581e+03 1.778279410038922848e+01
3.661986719959431412e+03 3.162277660168379256e+01
3.947381449109136611e+03 5.623413251903490817e+01
4.257709607459258223e+03 1.000000000000000000e+02
4.596224834547835599e+03 1.778279410038922776e+02
4.980040149572206246e+03 3.162277660168379612e+02
