# Temperature (K), Pressure (bars)
8.546513054552292488e+02 3.162277660168379394e-04
9.068445733046152100e+02 5.623413251903490971e-04
9.590378421825582791e+02 1.000000000000000021e-03
1.010131368381569018e+03 1.778279410038922752e-03
1.060973750887348842e+03 3.162277660168379394e-03
1.114857163591645303e+03 5.623413251903490971e-03
1.174910729872442516e+03 1.000000000000000021e-02
1.246932616983969183e+03 1.778279410038922925e-02
1.335253209085031813e+03 3.162277660168379134e-02
1.464765774677866375e+03 5.623413251903491145e-02
1.668740012660682623e+03 1.000000000000000056e-01
1.922956382511669062e+03 1.778279410038922925e-01
2.182687365214628699e+03 3.162277660168379412e-01
2.430150942412275526e+03 5.623413251903490728e-01
2.661352497117086386e+03 1.000000000000000000e+00
2.881055526921525143e+03 1.778279410038922759e+00
3.096850357940703816e+03 3.162277660168379523e+00
3.316056494094196296e+03 5.623413251903491172e+00
3.545036603175291475e+03 1.000000000000000000e+01
3.789619502708784239e+03 1.778279410038922848e+01
4.057915572970625817e+03 3.162277660168379256e+01
4.354278896907404487e+03 5.623413251903490817e+01
4.685771653279765815e+03 1.000000000000000000e+02
5.055675711594094537e+03 1.778279410038922776e+02
5.485704610428540946e+03 3.162277660168379612e+02
