# Temperature (K), Pressure (bars)
9.365020435874528175e+02 3.162277660168379394e-03
9.852044836200273039e+02 5.623413251903490971e-03
1.033906925163271353e+03 1.000000000000000021e-02
1.080988394322400381e+03 1.778279410038922925e-02
1.127274633798652530e+03 3.162277660168379134e-02
1.174334738953653869e+03 5.623413251903491145e-02
1.225053612920703245e+03 1.000000000000000056e-01
1.282645133451331731e+03 1.778279410038922925e-01
1.352514537910108629e+03 3.162277660168379412e-01
1.443147127904060426e+03 5.623413251903490728e-01
1.568666238171800615e+03 1.000000000000000000e+00
1.731165754968022611e+03 1.778279410038922759e+00
1.938675804480717034e+03 3.162277660168379523e+00
2.207385204275379238e+03 5.623413251903491172e+00
2.505958868962168253e+03 1.000000000000000000e+01
2.803165781093073292e+03 1.778279410038922848e+01
3.102186253497545749e+03 3.162277660168379256e+01
3.403823553507004362e+03 5.623413251903490817e+01
3.715402003659550701e+03 1.000000000000000000e+02
4.042473243195855048e+03 1.778279410038922776e+02
4.398955493305979871e+03 3.162277660168379612e+02
