# Temperature (K), Pressure (bars)
8.437224086870975270e+02 1.000000000000000021e-03
8.824281252119470764e+02 1.778279410038922752e-03
9.211338429000685437e+02 3.162277660168379394e-03
9.585914037067362869e+02 5.623413251903490971e-03
9.962788111026507067e+02 1.000000000000000021e-02
1.035043122643164907e+03 1.778279410038922925e-02
1.074875572905208628e+03 3.162277660168379134e-02
1.117093023803014376e+03 5.623413251903491145e-02
1.164065668680660792e+03 1.000000000000000056e-01
1.220025765382109967e+03 1.778279410038922925e-01
1.288443494414801762e+03 3.162277660168379412e-01
1.378068791430837791e+03 5.623413251903490728e-01
1.510081677081082034e+03 1.000000000000000000e+00
1.697474500215445232e+03 1.778279410038922759e+00
1.942105207285917686e+03 3.162277660168379523e+00
2.230601407522894078e+03 5.623413251903491172e+00
2.530782113495741669e+03 1.000000000000000000e+01
2.827168047501992532e+03 1.778279410038922848e+01
3.124721220611090757e+03 3.162277660168379256e+01
3.425239552818932680e+03 5.623413251903490817e+01
3.736306491759071378e+03 1.000000000000000000e+02
4.063243466683384668e+03 1.778279410038922776e+02
4.420291057014074795e+03 3.162277660168379612e+02
