# Temperature (K), Pressure (bars)
1.664542048718923525e+03 9.999999999999999547e-07
1.688066138620878519e+03 1.778279410038922901e-06
1.711590228532574656e+03 3.162277660168379191e-06
1.767402543680310600e+03 5.623413251903491208e-06
1.834134248058810499e+03 1.000000000000000082e-05
1.892099198595422422e+03 1.778279410038922901e-05
1.946543019053446415e+03 3.162277660168379530e-05
1.998684040889017979e+03 5.623413251903490700e-05
2.045671466339380913e+03 1.000000000000000048e-04
2.086667466113518913e+03 1.778279410038922698e-04
2.122447456606302694e+03 3.162277660168379394e-04
2.155309672681890788e+03 5.623413251903490971e-04
2.187128657100688997e+03 1.000000000000000021e-03
2.219503304835008748e+03 1.778279410038922752e-03
2.254647810101967025e+03 3.162277660168379394e-03
2.294554721545203392e+03 5.623413251903490971e-03
2.342582959021580791e+03 1.000000000000000021e-02
2.400160311343488502e+03 1.778279410038922925e-02
2.475327922895475695e+03 3.162277660168379134e-02
2.583973374939625955e+03 5.623413251903491145e-02
2.720949050563343008e+03 1.000000000000000056e-01
2.871226915266052856e+03 1.778279410038922925e-01
3.032786616773985315e+03 3.162277660168379412e-01
3.207658995309642705e+03 5.623413251903490728e-01
3.396437701476064831e+03 1.000000000000000000e+00
3.599464209547943028e+03 1.778279410038922759e+00
3.818844760922716887e+03 3.162277660168379523e+00
4.058966030133161439e+03 5.623413251903491172e+00
4.325960166445407594e+03 1.000000000000000000e+01
4.627638226861217845e+03 1.778279410038922848e+01
4.974547334750039226e+03 3.162277660168379256e+01
5.384622364526690944e+03 5.623413251903490817e+01
5.875883522231067218e+03 1.000000000000000000e+02
6.479192516145026275e+03 1.778279410038922776e+02
7.243279602639997393e+03 3.162277660168379612e+02
