# Temperature (K), Pressure (bars)
2.374475076286953481e+03 9.999999999999999547e-07
2.396324565088201325e+03 1.778279410038922901e-06
2.418174053889449169e+03 3.162277660168379191e-06
2.444424887353854501e+03 5.623413251903491208e-06
2.470803972058318323e+03 1.000000000000000082e-05
2.497504844458484513e+03 1.778279410038922901e-05
2.524612014580523464e+03 3.162277660168379530e-05
2.550863870805307215e+03 5.623413251903490700e-05
2.576372694218363904e+03 1.000000000000000048e-04
2.599785973263906726e+03 1.778279410038922698e-04
2.618474919863010655e+03 3.162277660168379394e-04
2.630437382901325236e+03 5.623413251903490971e-04
2.638896506204285288e+03 1.000000000000000021e-03
2.651771416473160116e+03 1.778279410038922752e-03
2.676150980146978327e+03 3.162277660168379394e-03
2.713913632264630451e+03 5.623413251903490971e-03
2.766571648324988928e+03 1.000000000000000021e-02
2.833494689038399883e+03 1.778279410038922925e-02
2.923081454639291678e+03 3.162277660168379134e-02
3.047849230241479745e+03 5.623413251903491145e-02
3.195456102719566388e+03 1.000000000000000056e-01
3.357527780397235347e+03 1.778279410038922925e-01
3.541980975432287778e+03 3.162277660168379412e-01
3.755042891926759694e+03 5.623413251903490728e-01
4.004145332535608304e+03 1.000000000000000000e+00
4.300390821811639398e+03 1.778279410038922759e+00
4.632662857686034840e+03 3.162277660168379523e+00
5.053426579573908384e+03 5.623413251903491172e+00
5.623216861867266744e+03 1.000000000000000000e+01
6.458783492108877908e+03 1.778279410038922848e+01
7.733726332186562104e+03 3.162277660168379256e+01
9.461117379448522115e+03 5.623413251903490817e+01
1.153863304597632850e+04 1.000000000000000000e+02
1.404816505457813764e+04 1.778279410038922776e+02
1.704172841855384468e+04 3.162277660168379612e+02
