# Temperature (K), Pressure (bars)
1.100902615965674386e+03 1.000000000000000082e-05
1.149846067608132444e+03 1.778279410038922901e-05
1.198789525726726424e+03 3.162277660168379530e-05
1.258952220082749591e+03 5.623413251903490700e-05
1.326821608457570846e+03 1.000000000000000048e-04
1.394250177209649337e+03 1.778279410038922698e-04
1.458700899194971953e+03 3.162277660168379394e-04
1.518510322308800824e+03 5.623413251903490971e-04
1.587619321119243068e+03 1.000000000000000021e-03
1.682385795583145409e+03 1.778279410038922752e-03
1.774790603724381072e+03 3.162277660168379394e-03
1.846601595913823076e+03 5.623413251903490971e-03
1.913872915756891643e+03 1.000000000000000021e-02
1.984969096267430359e+03 1.778279410038922925e-02
2.066269020642143005e+03 3.162277660168379134e-02
2.163016097328273190e+03 5.623413251903491145e-02
2.297038105209279365e+03 1.000000000000000056e-01
2.479712993597470813e+03 1.778279410038922925e-01
2.671604351753404444e+03 3.162277660168379412e-01
2.854404568399020263e+03 5.623413251903490728e-01
3.041285774738219516e+03 1.000000000000000000e+00
3.236115098045644118e+03 1.778279410038922759e+00
3.441324503050799649e+03 3.162277660168379523e+00
3.659809860471293177e+03 5.623413251903491172e+00
3.895740441025717246e+03 1.000000000000000000e+01
4.154370166715730193e+03 1.778279410038922848e+01
4.441955353607328107e+03 3.162277660168379256e+01
4.766568025680565370e+03 5.623413251903490817e+01
5.142914116478485084e+03 1.000000000000000000e+02
5.580326733407550819e+03 1.778279410038922776e+02
6.096773143674483435e+03 3.162277660168379612e+02
