# Temperature (K), Pressure (bars)
1.733833171286856214e+03 9.999999999999999547e-07
1.748140658843060919e+03 1.778279410038922901e-06
1.762448146431096575e+03 3.162277660168379191e-06
1.779374842198780698e+03 5.623413251903491208e-06
1.804488965936832301e+03 1.000000000000000082e-05
1.835703460131259817e+03 1.778279410038922901e-05
1.869900439905743951e+03 3.162277660168379530e-05
1.908519853225987163e+03 5.623413251903490700e-05
1.950863708764250532e+03 1.000000000000000048e-04
1.996458677010835345e+03 1.778279410038922698e-04
2.046497347265778217e+03 3.162277660168379394e-04
2.100892730499474965e+03 5.623413251903490971e-04
2.160728198910156607e+03 1.000000000000000021e-03
2.226437765230897639e+03 1.778279410038922752e-03
2.302981852011525007e+03 3.162277660168379394e-03
2.399158410007008570e+03 5.623413251903490971e-03
2.511035031549137784e+03 1.000000000000000021e-02
2.631754185449060060e+03 1.778279410038922925e-02
2.761727981739596999e+03 3.162277660168379134e-02
2.902438438865448461e+03 5.623413251903491145e-02
3.055976467992750713e+03 1.000000000000000056e-01
3.224860744681712276e+03 1.778279410038922925e-01
3.411227298945341317e+03 3.162277660168379412e-01
3.616376526017553260e+03 5.623413251903490728e-01
3.842518535031307238e+03 1.000000000000000000e+00
4.094674325393482832e+03 1.778279410038922759e+00
4.382496600368713189e+03 3.162277660168379523e+00
4.713342536448368264e+03 5.623413251903491172e+00
5.119819889083415546e+03 1.000000000000000000e+01
5.643080027765917293e+03 1.778279410038922848e+01
6.362894944139305153e+03 3.162277660168379256e+01
7.420398246895609191e+03 5.623413251903490817e+01
8.946520470795650908e+03 1.000000000000000000e+02
1.088833015298346072e+04 1.778279410038922776e+02
1.320958934268669145e+04 3.162277660168379612e+02
