# Temperature (K), Pressure (bars)
2.179614479955957449e+03 9.999999999999999547e-07
2.199317448831879119e+03 1.778279410038922901e-06
2.219020417707801244e+03 3.162277660168379191e-06
2.241581812991952575e+03 5.623413251903491208e-06
2.266873303895790286e+03 1.000000000000000082e-05
2.293709625172142751e+03 1.778279410038922901e-05
2.320503100138356785e+03 3.162277660168379530e-05
2.344993872756073870e+03 5.623413251903490700e-05
2.366370108144223195e+03 1.000000000000000048e-04
2.386662865663263801e+03 1.778279410038922698e-04
2.409507290098316844e+03 3.162277660168379394e-04
2.438016172211623143e+03 5.623413251903490971e-04
2.474173258619262469e+03 1.000000000000000021e-03
2.519128491249595299e+03 1.778279410038922752e-03
2.575136534092259353e+03 3.162277660168379394e-03
2.643603131984367337e+03 5.623413251903490971e-03
2.729032267171896365e+03 1.000000000000000021e-02
2.837150746206154963e+03 1.778279410038922925e-02
2.962964460068612880e+03 3.162277660168379134e-02
3.103035216794342432e+03 5.623413251903491145e-02
3.262007140593302211e+03 1.000000000000000056e-01
3.447060088037194419e+03 1.778279410038922925e-01
3.644312306557835655e+03 3.162277660168379412e-01
3.871802297549108516e+03 5.623413251903490728e-01
4.137693009498951142e+03 1.000000000000000000e+00
4.445487094802858337e+03 1.778279410038922759e+00
4.835230715243811574e+03 3.162277660168379523e+00
5.365539303862006818e+03 5.623413251903491172e+00
6.153726272940831223e+03 1.000000000000000000e+01
7.377853830966167152e+03 1.778279410038922848e+01
9.051179608868662399e+03 3.162277660168379256e+01
1.000000000000000000e+04 5.623413251903490817e+01
1.000000000000000000e+04 1.000000000000000000e+02
1.000000000000000000e+04 1.778279410038922776e+02
1.000000000000000000e+04 3.162277660168379612e+02
