# Temperature (K), Pressure (bars)
2.355202928229194640e+03 9.999999999999999547e-07
2.371997984260729481e+03 1.778279410038922901e-06
2.388793040292295245e+03 3.162277660168379191e-06
2.412419995872544860e+03 5.623413251903491208e-06
2.440207260415193105e+03 1.000000000000000082e-05
2.471810458620686404e+03 1.778279410038922901e-05
2.505446723043200109e+03 3.162277660168379530e-05
2.539898832364190639e+03 5.623413251903490700e-05
2.576388647614030106e+03 1.000000000000000048e-04
2.614899945022180418e+03 1.778279410038922698e-04
2.654591870695661783e+03 3.162277660168379394e-04
2.693638973439054098e+03 5.623413251903490971e-04
2.729523950102740855e+03 1.000000000000000021e-03
2.759739162208773450e+03 1.778279410038922752e-03
2.784135097251673415e+03 3.162277660168379394e-03
2.806801221369029918e+03 5.623413251903490971e-03
2.833343292296927302e+03 1.000000000000000021e-02
2.870296621058734218e+03 1.778279410038922925e-02
2.920320846558484391e+03 3.162277660168379134e-02
2.991764035825710380e+03 5.623413251903491145e-02
3.102363910633730484e+03 1.000000000000000056e-01
3.248437811023873564e+03 1.778279410038922925e-01
3.416234842273867798e+03 3.162277660168379412e-01
3.606380963415663246e+03 5.623413251903490728e-01
3.824131457870844315e+03 1.000000000000000000e+00
4.074277857024843797e+03 1.778279410038922759e+00
4.363645065656302904e+03 3.162277660168379523e+00
4.689073163700650184e+03 5.623413251903491172e+00
5.086179965139510387e+03 1.000000000000000000e+01
5.592131339242923787e+03 1.778279410038922848e+01
6.277023978269256077e+03 3.162277660168379256e+01
7.271122951026817645e+03 5.623413251903490817e+01
8.721898329091993219e+03 1.000000000000000000e+02
1.060704458549502306e+04 1.778279410038922776e+02
1.286799238025677187e+04 3.162277660168379612e+02
