# Temperature (K), Pressure (bars)
8.414044300203872808e+02 1.778279410038922901e-05
8.848066958960694137e+02 3.162277660168379530e-05
9.282089613888773556e+02 5.623413251903490700e-05
9.710724878631656338e+02 1.000000000000000048e-04
1.015455975430483136e+03 1.778279410038922698e-04
1.062297933058469880e+03 3.162277660168379394e-04
1.110034442071826106e+03 5.623413251903490971e-04
1.155722329057635989e+03 1.000000000000000021e-03
1.198670302328200023e+03 1.778279410038922752e-03
1.239988329014156761e+03 3.162277660168379394e-03
1.282040950190986905e+03 5.623413251903490971e-03
1.321924460269267456e+03 1.000000000000000021e-02
1.374369815402241102e+03 1.778279410038922925e-02
1.434035149883944314e+03 3.162277660168379134e-02
1.515465241976055040e+03 5.623413251903491145e-02
1.693635735111171016e+03 1.000000000000000056e-01
1.944732680486359413e+03 1.778279410038922925e-01
2.201956292605714225e+03 3.162277660168379412e-01
2.449451572166743972e+03 5.623413251903490728e-01
2.680267067947964733e+03 1.000000000000000000e+00
2.899265454783640052e+03 1.778279410038922759e+00
3.114360766714060446e+03 3.162277660168379523e+00
3.333202469015479892e+03 5.623413251903491172e+00
3.562213553378765482e+03 1.000000000000000000e+01
3.807210275211695262e+03 1.778279410038922848e+01
4.076314272254803655e+03 3.162277660168379256e+01
4.373863289212628843e+03 5.623413251903490817e+01
4.706977986500400220e+03 1.000000000000000000e+02
5.078864667018625369e+03 1.778279410038922776e+02
5.511199174983318699e+03 3.162277660168379612e+02
