# Temperature (K), Pressure (bars)
2.183965069539605338e+03 3.162277660168379191e-06
2.199635824281455371e+03 5.623413251903491208e-06
2.215306592508133690e+03 1.000000000000000082e-05
2.237368136707755184e+03 1.778279410038922901e-05
2.265124593515819925e+03 3.162277660168379530e-05
2.299911183067475577e+03 5.623413251903490700e-05
2.346426383543530392e+03 1.000000000000000048e-04
2.405681508511728680e+03 1.778279410038922698e-04
2.476941755605363142e+03 3.162277660168379394e-04
2.558328785601821437e+03 5.623413251903490971e-04
2.648837307853275433e+03 1.000000000000000021e-03
2.747451125782513373e+03 1.778279410038922752e-03
2.849896477696096554e+03 3.162277660168379394e-03
2.948141625029424176e+03 5.623413251903490971e-03
3.035009223735811702e+03 1.000000000000000021e-02
3.102941747701265740e+03 1.778279410038922925e-02
3.151360955608071890e+03 3.162277660168379134e-02
3.167185476163380827e+03 5.623413251903491145e-02
3.206281934385867316e+03 1.000000000000000056e-01
3.356884398703627085e+03 1.778279410038922925e-01
3.564873670166566626e+03 3.162277660168379412e-01
3.785241914423006165e+03 5.623413251903490728e-01
4.046772646204821740e+03 1.000000000000000000e+00
4.363722704580992286e+03 1.778279410038922759e+00
4.719637281033497857e+03 3.162277660168379523e+00
5.185009678672347945e+03 5.623413251903491172e+00
5.849051032951097113e+03 1.000000000000000000e+01
6.876207593750516935e+03 1.778279410038922848e+01
8.378498092077104957e+03 3.162277660168379256e+01
1.000000000000000000e+04 5.623413251903490817e+01
1.000000000000000000e+04 1.000000000000000000e+02
1.000000000000000000e+04 1.778279410038922776e+02
1.000000000000000000e+04 3.162277660168379612e+02
