# Temperature (K), Pressure (bars)
2.402481663889858737e+03 9.999999999999999547e-07
2.422397994581629064e+03 1.778279410038922901e-06
2.442314325273398936e+03 3.162277660168379191e-06
2.468258476972538574e+03 5.623413251903491208e-06
2.498791000422336765e+03 1.000000000000000082e-05
2.530566898099189984e+03 1.778279410038922901e-05
2.563597109910605923e+03 3.162277660168379530e-05
2.598378260011316343e+03 5.623413251903490700e-05
2.634924114081802600e+03 1.000000000000000048e-04
2.672468927355243522e+03 1.778279410038922698e-04
2.709329260362560944e+03 3.162277660168379394e-04
2.743101413360699098e+03 5.623413251903490971e-04
2.770777851846561589e+03 1.000000000000000021e-03
2.792126486871243287e+03 1.778279410038922752e-03
2.812153998885766669e+03 3.162277660168379394e-03
2.839714932313514964e+03 5.623413251903490971e-03
2.880966899347398794e+03 1.000000000000000021e-02
2.940562706840577448e+03 1.778279410038922925e-02
3.017203616967399739e+03 3.162277660168379134e-02
3.118897550890669663e+03 5.623413251903491145e-02
3.261550545137220070e+03 1.000000000000000056e-01
3.433696658125163594e+03 1.778279410038922925e-01
3.629082132778675259e+03 3.162277660168379412e-01
3.847987488536838100e+03 5.623413251903490728e-01
4.105787385630602330e+03 1.000000000000000000e+00
4.403073887499285775e+03 1.778279410038922759e+00
4.774107093216030989e+03 3.162277660168379523e+00
5.268366833425156983e+03 5.623413251903491172e+00
5.988569154782538135e+03 1.000000000000000000e+01
7.110154644579528394e+03 1.778279410038922848e+01
8.702080848272882577e+03 3.162277660168379256e+01
1.000000000000000000e+04 5.623413251903490817e+01
1.000000000000000000e+04 1.000000000000000000e+02
1.000000000000000000e+04 1.778279410038922776e+02
1.000000000000000000e+04 3.162277660168379612e+02
