# Temperature (K), Pressure (bars)
1.374862337382814985e+03 9.999999999999999547e-07
1.420665998284023772e+03 1.778279410038922901e-06
1.466469659185231649e+03 3.162277660168379191e-06
1.521876423156300916e+03 5.623413251903491208e-06
1.585495140698949626e+03 1.000000000000000082e-05
1.650493539952903120e+03 1.778279410038922901e-05
1.715385344804969463e+03 3.162277660168379530e-05
1.782403014280602520e+03 5.623413251903490700e-05
1.853514900533180707e+03 1.000000000000000048e-04
1.929379686463794314e+03 1.778279410038922698e-04
2.010278247937916376e+03 3.162277660168379394e-04
2.101017312045033123e+03 5.623413251903490971e-04
2.208550884476999272e+03 1.000000000000000021e-03
2.330835106401772464e+03 1.778279410038922752e-03
2.461213970321489342e+03 3.162277660168379394e-03
2.597797115196214691e+03 5.623413251903490971e-03
2.741581715138188883e+03 1.000000000000000021e-02
2.894739527126391295e+03 1.778279410038922925e-02
3.061163574795886689e+03 3.162277660168379134e-02
3.252061222758927670e+03 5.623413251903491145e-02
3.435046801035377484e+03 1.000000000000000056e-01
3.646468265764122862e+03 1.778279410038922925e-01
3.895739357123755781e+03 3.162277660168379412e-01
4.185954147766507958e+03 5.623413251903490728e-01
4.569478202072471504e+03 1.000000000000000000e+00
5.135365061341785804e+03 1.778279410038922759e+00
6.015181446548593158e+03 3.162277660168379523e+00
7.320342201419353842e+03 5.623413251903491172e+00
8.997334088602770862e+03 1.000000000000000000e+01
1.000000000000000000e+04 1.778279410038922848e+01
1.000000000000000000e+04 3.162277660168379256e+01
1.000000000000000000e+04 5.623413251903490817e+01
1.000000000000000000e+04 1.000000000000000000e+02
1.000000000000000000e+04 1.778279410038922776e+02
1.000000000000000000e+04 3.162277660168379612e+02
