# Temperature (K), Pressure (bars)
1.760903944022155201e+03 3.162277660168379191e-06
1.772316436673421322e+03 5.623413251903491208e-06
1.783728928323834452e+03 1.000000000000000082e-05
1.801965440115003958e+03 1.778279410038922901e-05
1.827374723947909160e+03 3.162277660168379530e-05
1.858069568696175338e+03 5.623413251903490700e-05
1.895110919457218642e+03 1.000000000000000048e-04
1.939361248357295381e+03 1.778279410038922698e-04
1.989818416986175635e+03 3.162277660168379394e-04
2.045939978849724184e+03 5.623413251903490971e-04
2.106299701434817962e+03 1.000000000000000021e-03
2.171357068118960797e+03 1.778279410038922752e-03
2.240709718558944132e+03 3.162277660168379394e-03
2.323493770785825291e+03 5.623413251903490971e-03
2.432018370584927652e+03 1.000000000000000021e-02
2.554354337264278001e+03 1.778279410038922925e-02
2.681058716016629660e+03 3.162277660168379134e-02
2.816226589401107049e+03 5.623413251903491145e-02
2.961347174799204822e+03 1.000000000000000056e-01
3.118180044831975465e+03 1.778279410038922925e-01
3.288927990478955962e+03 3.162277660168379412e-01
3.476045212944329251e+03 5.623413251903490728e-01
3.681879242672867349e+03 1.000000000000000000e+00
3.909102179322636857e+03 1.778279410038922759e+00
4.162352401997193738e+03 3.162277660168379523e+00
4.449653860360779618e+03 5.623413251903491172e+00
4.783285373680566408e+03 1.000000000000000000e+01
5.178434652526433638e+03 1.778279410038922848e+01
5.667445821756734404e+03 3.162277660168379256e+01
6.298328785940755552e+03 5.623413251903490817e+01
7.153160339288348041e+03 1.000000000000000000e+02
8.368508571588619816e+03 1.778279410038922776e+02
1.000000000000000000e+04 3.162277660168379612e+02
