# Temperature (K), Pressure (bars)
1.821736922586127093e+03 9.999999999999999547e-07
1.844540906421903856e+03 1.778279410038922901e-06
1.867344890257879797e+03 3.162277660168379191e-06
1.900328505187833571e+03 5.623413251903491208e-06
1.942465654549193232e+03 1.000000000000000082e-05
1.989969010066342435e+03 1.778279410038922901e-05
2.041077687150527254e+03 3.162277660168379530e-05
2.090422601278304683e+03 5.623413251903490700e-05
2.133640632006702617e+03 1.000000000000000048e-04
2.171040260555199893e+03 1.778279410038922698e-04
2.204099196610003673e+03 3.162277660168379394e-04
2.234858702609415559e+03 5.623413251903490971e-04
2.265752167325317259e+03 1.000000000000000021e-03
2.298793574732691468e+03 1.778279410038922752e-03
2.336200201583063972e+03 3.162277660168379394e-03
2.379545187924138190e+03 5.623413251903490971e-03
2.432449946212634131e+03 1.000000000000000021e-02
2.495565335107510236e+03 1.778279410038922925e-02
2.579208322711750498e+03 3.162277660168379134e-02
2.697962379903176952e+03 5.623413251903491145e-02
2.837526681826792355e+03 1.000000000000000056e-01
2.985873208445639648e+03 1.778279410038922925e-01
3.147973721506238689e+03 3.162277660168379412e-01
3.325756486045296697e+03 5.623413251903490728e-01
3.520135973347870276e+03 1.000000000000000000e+00
3.731930543312907503e+03 1.778279410038922759e+00
3.963682103024792013e+03 3.162277660168379523e+00
4.220534163840960900e+03 5.623413251903491172e+00
4.510152890638166355e+03 1.000000000000000000e+01
4.843075957813920468e+03 1.778279410038922848e+01
5.235238417268552439e+03 3.162277660168379256e+01
5.707253843929204777e+03 5.623413251903490817e+01
6.290262179360483060e+03 1.000000000000000000e+02
7.033697243986864123e+03 1.778279410038922776e+02
8.021212204977038709e+03 3.162277660168379612e+02
