# Temperature (K), Pressure (bars)
2.207562691655301478e+03 9.999999999999999547e-07
2.214173455150280915e+03 1.778279410038922901e-06
2.220784218645260353e+03 3.162277660168379191e-06
2.250463894368882393e+03 5.623413251903491208e-06
2.291353714270820092e+03 1.000000000000000082e-05
2.335159339941236340e+03 1.778279410038922901e-05
2.384515562164000130e+03 3.162277660168379530e-05
2.437984246060580062e+03 5.623413251903490700e-05
2.493166473477002455e+03 1.000000000000000048e-04
2.548145362131199818e+03 1.778279410038922698e-04
2.601987781920010093e+03 3.162277660168379394e-04
2.653561337628142610e+03 5.623413251903490971e-04
2.701750899235552424e+03 1.000000000000000021e-03
2.748112077925309222e+03 1.778279410038922752e-03
2.798100959926768610e+03 3.162277660168379394e-03
2.854999612195462760e+03 5.623413251903490971e-03
2.919805780318259622e+03 1.000000000000000021e-02
2.981481993683528344e+03 1.778279410038922925e-02
3.059105215507529920e+03 3.162277660168379134e-02
3.197245209263751349e+03 5.623413251903491145e-02
3.384115574323911005e+03 1.000000000000000056e-01
3.579453891272869441e+03 1.778279410038922925e-01
3.811177524590309986e+03 3.162277660168379412e-01
4.082703552611211762e+03 5.623413251903490728e-01
4.409758962909940237e+03 1.000000000000000000e+00
4.852707536085634274e+03 1.778279410038922759e+00
5.523881348331747176e+03 3.162277660168379523e+00
6.608309385465079686e+03 5.623413251903491172e+00
8.142877930868598924e+03 1.000000000000000000e+01
9.915964666814959855e+03 1.778279410038922848e+01
1.000000000000000000e+04 3.162277660168379256e+01
1.000000000000000000e+04 5.623413251903490817e+01
1.000000000000000000e+04 1.000000000000000000e+02
1.000000000000000000e+04 1.778279410038922776e+02
1.000000000000000000e+04 3.162277660168379612e+02
