# Temperature (K), Pressure (bars)
8.547350492855770199e+02 5.623413251903490700e-05
9.082578180528970506e+02 1.000000000000000048e-04
9.617805879230924120e+02 1.778279410038922698e-04
1.014226099315889883e+03 3.162277660168379394e-04
1.066239333498626138e+03 5.623413251903490971e-04
1.120272313990073826e+03 1.000000000000000021e-03
1.178383188091308512e+03 1.778279410038922752e-03
1.243322855951042357e+03 3.162277660168379394e-03
1.317660831755856634e+03 5.623413251903490971e-03
1.408983893937966286e+03 1.000000000000000021e-02
1.529717652341338635e+03 1.778279410038922925e-02
1.708424176671128180e+03 3.162277660168379134e-02
1.951221951308287089e+03 5.623413251903491145e-02
2.200848276911415269e+03 1.000000000000000056e-01
2.423192196961076206e+03 1.778279410038922925e-01
2.627864666841906910e+03 3.162277660168379412e-01
2.822347396444578408e+03 5.623413251903490728e-01
3.013488917523579403e+03 1.000000000000000000e+00
3.207100113283956489e+03 1.778279410038922759e+00
3.408493017837438401e+03 3.162277660168379523e+00
3.622567279216998941e+03 5.623413251903491172e+00
3.854061563329333239e+03 1.000000000000000000e+01
4.108228857391850397e+03 1.778279410038922848e+01
4.393644321005070196e+03 3.162277660168379256e+01
4.715623126589383901e+03 5.623413251903490817e+01
5.083294700755674057e+03 1.000000000000000000e+02
5.501378662017919851e+03 1.778279410038922776e+02
5.999397973583566454e+03 3.162277660168379612e+02
