# Temperature (K), Pressure (bars)
2.346683725438493184e+03 9.999999999999999547e-07
2.365212717952335424e+03 1.778279410038922901e-06
2.383741710466177210e+03 3.162277660168379191e-06
2.412608615816202473e+03 5.623413251903491208e-06
2.446963967512199360e+03 1.000000000000000082e-05
2.483258072061640632e+03 1.778279410038922901e-05
2.522513569357854067e+03 3.162277660168379530e-05
2.563771290125767337e+03 5.623413251903490700e-05
2.606145108346869620e+03 1.000000000000000048e-04
2.647844611858655298e+03 1.778279410038922698e-04
2.685552124803680726e+03 3.162277660168379394e-04
2.716524853560871179e+03 5.623413251903490971e-04
2.741627040968049641e+03 1.000000000000000021e-03
2.767448109717206080e+03 1.778279410038922752e-03
2.803505253228874608e+03 3.162277660168379394e-03
2.855457617861072777e+03 5.623413251903490971e-03
2.924864088924118732e+03 1.000000000000000021e-02
3.007866081728183417e+03 1.778279410038922925e-02
3.104782348029882996e+03 3.162277660168379134e-02
3.231218808846340835e+03 5.623413251903491145e-02
3.396308311295412750e+03 1.000000000000000056e-01
3.588019030707064303e+03 1.778279410038922925e-01
3.816127749757388301e+03 3.162277660168379412e-01
4.087662282462749772e+03 5.623413251903490728e-01
4.417487405397130715e+03 1.000000000000000000e+00
4.867846575865606610e+03 1.778279410038922759e+00
5.560055685423030809e+03 3.162277660168379523e+00
6.682307728917684472e+03 5.623413251903491172e+00
8.239309651484585629e+03 1.000000000000000000e+01
1.000000000000000000e+04 1.778279410038922848e+01
1.000000000000000000e+04 3.162277660168379256e+01
1.000000000000000000e+04 5.623413251903490817e+01
1.000000000000000000e+04 1.000000000000000000e+02
1.000000000000000000e+04 1.778279410038922776e+02
1.000000000000000000e+04 3.162277660168379612e+02
