# Temperature (K), Pressure (bars)
2.324915206957789906e+03 9.999999999999999547e-07
2.345832268706620198e+03 1.778279410038922901e-06
2.366749330455451400e+03 3.162277660168379191e-06
2.391626057081545696e+03 5.623413251903491208e-06
2.423286706361222969e+03 1.000000000000000082e-05
2.457823227592470175e+03 1.778279410038922901e-05
2.494953281626227636e+03 3.162277660168379530e-05
2.534879611461464265e+03 5.623413251903490700e-05
2.576476963152058033e+03 1.000000000000000048e-04
2.619241445823222421e+03 1.778279410038922698e-04
2.660577456021862872e+03 3.162277660168379394e-04
2.697728557148994696e+03 5.623413251903490971e-04
2.729098948883241519e+03 1.000000000000000021e-03
2.756041601929214721e+03 1.778279410038922752e-03
2.783501155016657322e+03 3.162277660168379394e-03
2.818161815318655044e+03 5.623413251903490971e-03
2.865100927249434335e+03 1.000000000000000021e-02
2.927802771266944546e+03 1.778279410038922925e-02
3.007019868363158366e+03 3.162277660168379134e-02
3.113405323320634125e+03 5.623413251903491145e-02
3.258676301964891081e+03 1.000000000000000056e-01
3.433299745154547054e+03 1.778279410038922925e-01
3.623706793499591186e+03 3.162277660168379412e-01
3.843874604268741223e+03 5.623413251903490728e-01
4.102048713999214669e+03 1.000000000000000000e+00
4.398129807891557903e+03 1.778279410038922759e+00
4.766909293555938348e+03 3.162277660168379523e+00
5.256207085829850257e+03 5.623413251903491172e+00
5.965584517968524779e+03 1.000000000000000000e+01
7.069287204210525488e+03 1.778279410038922848e+01
8.646399667087773196e+03 3.162277660168379256e+01
1.000000000000000000e+04 5.623413251903490817e+01
1.000000000000000000e+04 1.000000000000000000e+02
1.000000000000000000e+04 1.778279410038922776e+02
1.000000000000000000e+04 3.162277660168379612e+02
