# Temperature (K), Pressure (bars)
9.971632324347401664e+02 3.162277660168379394e-04
1.023971248921713368e+03 5.623413251903490971e-04
1.050779264131591162e+03 1.000000000000000021e-03
1.073892903600111822e+03 1.778279410038922752e-03
1.095579010674537358e+03 3.162277660168379394e-03
1.118498599928098656e+03 5.623413251903490971e-03
1.144263108473796819e+03 1.000000000000000021e-02
1.174986653929588556e+03 1.778279410038922925e-02
1.214064602393403220e+03 3.162277660168379134e-02
1.261997941520808126e+03 5.623413251903491145e-02
1.319617018346636542e+03 1.000000000000000056e-01
1.392541701991834771e+03 1.778279410038922925e-01
1.492459396294917724e+03 3.162277660168379412e-01
1.623453369587151883e+03 5.623413251903490728e-01
1.806489820218705518e+03 1.000000000000000000e+00
2.064680345069241412e+03 1.778279410038922759e+00
2.353702406985697962e+03 3.162277660168379523e+00
2.634019236014598846e+03 5.623413251903491172e+00
2.907753724263196546e+03 1.000000000000000000e+01
3.177917171275571036e+03 1.778279410038922848e+01
3.453344041348932478e+03 3.162277660168379256e+01
3.740814867751641032e+03 5.623413251903490817e+01
4.047762864613056081e+03 1.000000000000000000e+02
4.378155735427645595e+03 1.778279410038922776e+02
4.747777204746034840e+03 3.162277660168379612e+02
