# Temperature (K), Pressure (bars)
2.243993332453649600e+03 9.999999999999999547e-07
2.246987604788434510e+03 1.778279410038922901e-06
2.249981877177435308e+03 3.162277660168379191e-06
2.261874087265750859e+03 5.623413251903491208e-06
2.278453620926455642e+03 1.000000000000000082e-05
2.294280448272312242e+03 1.778279410038922901e-05
2.307498942077764696e+03 3.162277660168379530e-05
2.317565803818156382e+03 5.623413251903490700e-05
2.326932604863097367e+03 1.000000000000000048e-04
2.339173929352857158e+03 1.778279410038922698e-04
2.355838789266452295e+03 3.162277660168379394e-04
2.376277011981327632e+03 5.623413251903490971e-04
2.398936410850093125e+03 1.000000000000000021e-03
2.422419678053589450e+03 1.778279410038922752e-03
2.446568550230525489e+03 3.162277660168379394e-03
2.472018204051630164e+03 5.623413251903490971e-03
2.500573143789868482e+03 1.000000000000000021e-02
2.533289624921156246e+03 1.778279410038922925e-02
2.575001563760570207e+03 3.162277660168379134e-02
2.625250432482057022e+03 5.623413251903491145e-02
2.699718842657776804e+03 1.000000000000000056e-01
2.825544975730950227e+03 1.778279410038922925e-01
2.982067633705706157e+03 3.162277660168379412e-01
3.146794815237863531e+03 5.623413251903490728e-01
3.325312340885242520e+03 1.000000000000000000e+00
3.520572743263388020e+03 1.778279410038922759e+00
3.734492137332427774e+03 3.162277660168379523e+00
3.969054564900315199e+03 5.623413251903491172e+00
4.228365778102121112e+03 1.000000000000000000e+01
4.518956677982746442e+03 1.778279410038922848e+01
4.849922864773239780e+03 3.162277660168379256e+01
5.236412456674282112e+03 5.623413251903490817e+01
5.693910550293358028e+03 1.000000000000000000e+02
6.247612693032589050e+03 1.778279410038922776e+02
6.935807139687390190e+03 3.162277660168379612e+02
