# Temperature (K), Pressure (bars)
1.831364266627146890e+03 1.778279410038922901e-05
1.842115221497175980e+03 3.162277660168379530e-05
1.853305019895381520e+03 5.623413251903490700e-05
1.866917018687460541e+03 1.000000000000000048e-04
1.885031515829032742e+03 1.778279410038922698e-04
1.909935869740003454e+03 3.162277660168379394e-04
1.941031647549107674e+03 5.623413251903490971e-04
1.977706590013165851e+03 1.000000000000000021e-03
2.020851190872000188e+03 1.778279410038922752e-03
2.069170840575690818e+03 3.162277660168379394e-03
2.121585272751080083e+03 5.623413251903490971e-03
2.178030453278248388e+03 1.000000000000000021e-02
2.240314227040491460e+03 1.778279410038922925e-02
2.310141977305487671e+03 3.162277660168379134e-02
2.395917167877550128e+03 5.623413251903491145e-02
2.517636881465674833e+03 1.000000000000000056e-01
2.672409338866475082e+03 1.778279410038922925e-01
2.836798664939004993e+03 3.162277660168379412e-01
3.005641388502721838e+03 5.623413251903490728e-01
3.184827204323350998e+03 1.000000000000000000e+00
3.377119498649046363e+03 1.778279410038922759e+00
3.584447131909304517e+03 3.162277660168379523e+00
3.808920417960443956e+03 5.623413251903491172e+00
4.054222760981703232e+03 1.000000000000000000e+01
4.325892233177331036e+03 1.778279410038922848e+01
4.631125045562410378e+03 3.162277660168379256e+01
4.979555114416716606e+03 5.623413251903490817e+01
5.387955601348860910e+03 1.000000000000000000e+02
5.870488759030666188e+03 1.778279410038922776e+02
6.452161372657435095e+03 3.162277660168379612e+02
