# Temperature (K), Pressure (bars)
1.048513762220808758e+03 1.000000000000000021e-03
1.086311778015318623e+03 1.778279410038922752e-03
1.124109792061534563e+03 3.162277660168379394e-03
1.152217688845623115e+03 5.623413251903490971e-03
1.173404828384161647e+03 1.000000000000000021e-02
1.193757626501408822e+03 1.778279410038922925e-02
1.217268960476108759e+03 3.162277660168379134e-02
1.246855181849848350e+03 5.623413251903491145e-02
1.285877637844061155e+03 1.000000000000000056e-01
1.336308034162667127e+03 1.778279410038922925e-01
1.402570343646782021e+03 3.162277660168379412e-01
1.489210158014195940e+03 5.623413251903490728e-01
1.603207300107312221e+03 1.000000000000000000e+00
1.749064124277638712e+03 1.778279410038922759e+00
1.953201656962425886e+03 3.162277660168379523e+00
2.236555197624485118e+03 5.623413251903491172e+00
2.545194557848249588e+03 1.000000000000000000e+01
2.841626434772198991e+03 1.778279410038922848e+01
3.138005181301462471e+03 3.162277660168379256e+01
3.437578671209258118e+03 5.623413251903490817e+01
3.748062060550248134e+03 1.000000000000000000e+02
4.074838318285025252e+03 1.778279410038922776e+02
4.432016624874256195e+03 3.162277660168379612e+02
