# Temperature (K), Pressure (bars)
9.364418792092542390e+02 5.623413251903490700e-05
9.867942845837293362e+02 1.000000000000000048e-04
1.037146691593365631e+03 1.778279410038922698e-04
1.085020677809054860e+03 3.162277660168379394e-04
1.132165335811065916e+03 5.623413251903490971e-04
1.181038550963631906e+03 1.000000000000000021e-03
1.236301444555409489e+03 1.778279410038922752e-03
1.303374635798542840e+03 3.162277660168379394e-03
1.377656817238333360e+03 5.623413251903490971e-03
1.458624198214025910e+03 1.000000000000000021e-02
1.552954332342621001e+03 1.778279410038922925e-02
1.645006231272700461e+03 3.162277660168379134e-02
1.727132528625613531e+03 5.623413251903491145e-02
1.821040709853832141e+03 1.000000000000000056e-01
1.930611565954930484e+03 1.778279410038922925e-01
2.076924120523897273e+03 3.162277660168379412e-01
2.292296236282653808e+03 5.623413251903490728e-01
2.535649548124003104e+03 1.000000000000000000e+00
2.767572800101963367e+03 1.778279410038922759e+00
2.994294821987990417e+03 3.162277660168379523e+00
3.221537413870947148e+03 5.623413251903491172e+00
3.455116038128253876e+03 1.000000000000000000e+01
3.701198742679332554e+03 1.778279410038922848e+01
3.967730606778018227e+03 3.162277660168379256e+01
4.260057656824676087e+03 5.623413251903490817e+01
4.585136992335615105e+03 1.000000000000000000e+02
4.946219648003459042e+03 1.778279410038922776e+02
5.363624507456823267e+03 3.162277660168379612e+02
