# Temperature (K), Pressure (bars)
9.339736086217626507e+02 9.999999999999999547e-07
9.712003894969921021e+02 1.778279410038922901e-06
1.008427170393265101e+03 3.162277660168379191e-06
1.046018747629582322e+03 5.623413251903491208e-06
1.085858188456651760e+03 1.000000000000000082e-05
1.128798506915554526e+03 1.778279410038922901e-05
1.175018123919702930e+03 3.162277660168379530e-05
1.225360358931859082e+03 5.623413251903490700e-05
1.279373051695272352e+03 1.000000000000000048e-04
1.337389568531563100e+03 1.778279410038922698e-04
1.402161611392698205e+03 3.162277660168379394e-04
1.477584276901190606e+03 5.623413251903490971e-04
1.567465909124673544e+03 1.000000000000000021e-03
1.674959260053864455e+03 1.778279410038922752e-03
1.813658779244603465e+03 3.162277660168379394e-03
1.990445422633346425e+03 5.623413251903490971e-03
2.180689370755770142e+03 1.000000000000000021e-02
2.362797462853700381e+03 1.778279410038922925e-02
2.536911970671901145e+03 3.162277660168379134e-02
2.707391825379846523e+03 5.623413251903491145e-02
2.877868706195719824e+03 1.000000000000000056e-01
3.050893198468723313e+03 1.778279410038922925e-01
3.228428831886263652e+03 3.162277660168379412e-01
3.413197286299339339e+03 5.623413251903490728e-01
3.609391936504745900e+03 1.000000000000000000e+00
3.822102258242142852e+03 1.778279410038922759e+00
4.057034521140410106e+03 3.162277660168379523e+00
4.321072656382983041e+03 5.623413251903491172e+00
4.623456797692200780e+03 1.000000000000000000e+01
4.978829734844813174e+03 1.778279410038922848e+01
5.405190646993482005e+03 3.162277660168379256e+01
5.931354477131136264e+03 5.623413251903490817e+01
6.603885467952773070e+03 1.000000000000000000e+02
7.502783204855907570e+03 1.778279410038922776e+02
8.758577784010163668e+03 3.162277660168379612e+02
