# Temperature (K), Pressure (bars)
1.091895180288556276e+03 9.999999999999999547e-07
1.131535281627549011e+03 1.778279410038922901e-06
1.171175382968015128e+03 3.162277660168379191e-06
1.215211073327101985e+03 5.623413251903491208e-06
1.263235866413655913e+03 1.000000000000000082e-05
1.314641653508492709e+03 1.778279410038922901e-05
1.369657795099209807e+03 3.162277660168379530e-05
1.430791905280678293e+03 5.623413251903490700e-05
1.498487770164570520e+03 1.000000000000000048e-04
1.575142382335669936e+03 1.778279410038922698e-04
1.667560829092459926e+03 3.162277660168379394e-04
1.770954231313372702e+03 5.623413251903490971e-04
1.882795508769160733e+03 1.000000000000000021e-03
2.016320884247649929e+03 1.778279410038922752e-03
2.172185563683981400e+03 3.162277660168379394e-03
2.334070033879635957e+03 5.623413251903490971e-03
2.494488154083048357e+03 1.000000000000000021e-02
2.655890759825447731e+03 1.778279410038922925e-02
2.820984648721155281e+03 3.162277660168379134e-02
2.992365346676884201e+03 5.623413251903491145e-02
3.172435161524272644e+03 1.000000000000000056e-01
3.363198767998914263e+03 1.778279410038922925e-01
3.567488835743837626e+03 3.162277660168379412e-01
3.790809385928170286e+03 5.623413251903490728e-01
4.042306616067301547e+03 1.000000000000000000e+00
4.335532757497631792e+03 1.778279410038922759e+00
4.679605867761886657e+03 3.162277660168379523e+00
5.122101841182546195e+03 5.623413251903491172e+00
5.735635417978475743e+03 1.000000000000000000e+01
6.651369045350733359e+03 1.778279410038922848e+01
8.031150036025641384e+03 3.162277660168379256e+01
9.827492539688922989e+03 5.623413251903490817e+01
1.196665803766247154e+04 1.000000000000000000e+02
1.456787059718209821e+04 1.778279410038922776e+02
1.767093542742213322e+04 3.162277660168379612e+02
