# Temperature (K), Pressure (bars)
9.958312151486560424e+02 5.623413251903490700e-05
1.030384668425372183e+03 1.000000000000000048e-04
1.064938123694402520e+03 1.778279410038922698e-04
1.102675278269387718e+03 3.162277660168379394e-04
1.160113779179860330e+03 5.623413251903490971e-04
1.246040613945653831e+03 1.000000000000000021e-03
1.354780540930654297e+03 1.778279410038922752e-03
1.492149801913507190e+03 3.162277660168379394e-03
1.613916539301524153e+03 5.623413251903490971e-03
1.683965784273943882e+03 1.000000000000000021e-02
1.727906271194612600e+03 1.778279410038922925e-02
1.769807430613574070e+03 3.162277660168379134e-02
1.820535627919348826e+03 5.623413251903491145e-02
1.879526240637589581e+03 1.000000000000000056e-01
1.946125285763072498e+03 1.778279410038922925e-01
2.029289888929222343e+03 3.162277660168379412e-01
2.134893268469399572e+03 5.623413251903490728e-01
2.302145112281601541e+03 1.000000000000000000e+00
2.552368136971221247e+03 1.778279410038922759e+00
2.815675291811901843e+03 3.162277660168379523e+00
3.057514667647435999e+03 5.623413251903491172e+00
3.299406228790620844e+03 1.000000000000000000e+01
3.549090924558051483e+03 1.778279410038922848e+01
3.814577905549850584e+03 3.162277660168379256e+01
4.102004986032619854e+03 5.623413251903490817e+01
4.418177971086601246e+03 1.000000000000000000e+02
4.766151817225950253e+03 1.778279410038922776e+02
5.164674173931947735e+03 3.162277660168379612e+02
