# Temperature (K), Pressure (bars)
2.502413396656118948e+03 1.000000000000000082e-05
2.512688072624794131e+03 1.778279410038922901e-05
2.522962757253499603e+03 3.162277660168379530e-05
2.542943630804117220e+03 5.623413251903490700e-05
2.572162001103009516e+03 1.000000000000000048e-04
2.606850358536129534e+03 1.778279410038922698e-04
2.645793398657098805e+03 3.162277660168379394e-04
2.688403657230168392e+03 5.623413251903490971e-04
2.734703531396022754e+03 1.000000000000000021e-03
2.786178687021098995e+03 1.778279410038922752e-03
2.844362370575799559e+03 3.162277660168379394e-03
2.909511293203163859e+03 5.623413251903490971e-03
2.979693028029954803e+03 1.000000000000000021e-02
3.049936795388987321e+03 1.778279410038922925e-02
3.114246203334876554e+03 3.162277660168379134e-02
3.172275154375578495e+03 5.623413251903491145e-02
3.227283512175498345e+03 1.000000000000000056e-01
3.288638810240001931e+03 1.778279410038922925e-01
3.397572296906809243e+03 3.162277660168379412e-01
3.575769715197542155e+03 5.623413251903490728e-01
3.788796407746348450e+03 1.000000000000000000e+00
4.025065429998745003e+03 1.778279410038922759e+00
4.300881222296907254e+03 3.162277660168379523e+00
4.626593544309420395e+03 5.623413251903491172e+00
5.003593970069297939e+03 1.000000000000000000e+01
5.475677891647213983e+03 1.778279410038922848e+01
6.099756694626808894e+03 3.162277660168379256e+01
6.981868958949281478e+03 5.623413251903490817e+01
8.272716997183186322e+03 1.000000000000000000e+02
1.000000000000000000e+04 1.778279410038922776e+02
1.000000000000000000e+04 3.162277660168379612e+02
