# Temperature (K), Pressure (bars)
1.191571316412158922e+03 9.999999999999999547e-07
1.230632078856808675e+03 1.778279410038922901e-06
1.269692841302931356e+03 3.162277660168379191e-06
1.314020736362589332e+03 5.623413251903491208e-06
1.361857742880275055e+03 1.000000000000000082e-05
1.413254008027889085e+03 1.778279410038922901e-05
1.470516616978540696e+03 3.162277660168379530e-05
1.539058316440967474e+03 5.623413251903490700e-05
1.617635434776889724e+03 1.000000000000000048e-04
1.695824223635898989e+03 1.778279410038922698e-04
1.771350335178380647e+03 3.162277660168379394e-04
1.851095703623612735e+03 5.623413251903490971e-04
1.937539745446466895e+03 1.000000000000000021e-03
2.038604953803602029e+03 1.778279410038922752e-03
2.165168641284350997e+03 3.162277660168379394e-03
2.306748380844706389e+03 5.623413251903490971e-03
2.451483089594282774e+03 1.000000000000000021e-02
2.600171141606672791e+03 1.778279410038922925e-02
2.754500406202353588e+03 3.162277660168379134e-02
2.916450294263596334e+03 5.623413251903491145e-02
3.088074805271680816e+03 1.000000000000000056e-01
3.270874707655882958e+03 1.778279410038922925e-01
3.465990262471291771e+03 3.162277660168379412e-01
3.676118710478731828e+03 5.623413251903490728e-01
3.906969267834452694e+03 1.000000000000000000e+00
4.167402328866843163e+03 1.778279410038922759e+00
4.470070653913380738e+03 3.162277660168379523e+00
4.827090425784552281e+03 5.623413251903491172e+00
5.277743983635707991e+03 1.000000000000000000e+01
5.881738170799586442e+03 1.778279410038922848e+01
6.752506190595061526e+03 3.162277660168379256e+01
8.057474824766257370e+03 5.623413251903490817e+01
9.825170769187230690e+03 1.000000000000000000e+02
1.196465331814837191e+04 1.778279410038922776e+02
1.451423525263788724e+04 3.162277660168379612e+02
