# Temperature (K), Pressure (bars)
7.780305742550531249e+02 1.000000000000000082e-05
8.354578459420506533e+02 1.778279410038922901e-05
8.928851188720666414e+02 3.162277660168379530e-05
9.449556724703279542e+02 5.623413251903490700e-05
9.914441236037110912e+02 1.000000000000000048e-04
1.039608676759594346e+03 1.778279410038922698e-04
1.093000254071492236e+03 3.162277660168379394e-04
1.146261531257465322e+03 5.623413251903490971e-04
1.193446844544278974e+03 1.000000000000000021e-03
1.233430028566866895e+03 1.778279410038922752e-03
1.268602245906358348e+03 3.162277660168379394e-03
1.303313607144925982e+03 5.623413251903490971e-03
1.343999881022627733e+03 1.000000000000000021e-02
1.388608068512850650e+03 1.778279410038922925e-02
1.437199757055622513e+03 3.162277660168379134e-02
1.531419999775248925e+03 5.623413251903491145e-02
1.715039525314489993e+03 1.000000000000000056e-01
1.961790167077631395e+03 1.778279410038922925e-01
2.216838647430316996e+03 3.162277660168379412e-01
2.458173657255619673e+03 5.623413251903490728e-01
2.685919534055094118e+03 1.000000000000000000e+00
2.904611977196269891e+03 1.778279410038922759e+00
3.120536472802923072e+03 3.162277660168379523e+00
3.340240020259217545e+03 5.623413251903491172e+00
3.569960875028690680e+03 1.000000000000000000e+01
3.815547687816383132e+03 1.778279410038922848e+01
4.085063756242137060e+03 3.162277660168379256e+01
4.383232346304997009e+03 5.623413251903490817e+01
4.717261876934615429e+03 1.000000000000000000e+02
5.090663170420867573e+03 1.778279410038922776e+02
5.524821031040115486e+03 3.162277660168379612e+02
