# Temperature (K), Pressure (bars)
9.412116067935780848e+02 3.162277660168379394e-03
9.759825089009681278e+02 5.623413251903490971e-03
1.010753411059877976e+03 1.000000000000000021e-02
1.043115620465473512e+03 1.778279410038922925e-02
1.075418424206427062e+03 3.162277660168379134e-02
1.110116044282037819e+03 5.623413251903491145e-02
1.148832348930208354e+03 1.000000000000000056e-01
1.194224495761616026e+03 1.778279410038922925e-01
1.249699279195864619e+03 3.162277660168379412e-01
1.318657789028536399e+03 5.623413251903490728e-01
1.407830555663698760e+03 1.000000000000000000e+00
1.529343077434760971e+03 1.778279410038922759e+00
1.691775899847217715e+03 3.162277660168379523e+00
1.913838621288384957e+03 5.623413251903491172e+00
2.200113761159845581e+03 1.000000000000000000e+01
2.510619071134950900e+03 1.778279410038922848e+01
2.824274437617585590e+03 3.162277660168379256e+01
3.140149455664884499e+03 5.623413251903490817e+01
3.460864497468816808e+03 1.000000000000000000e+02
3.790575001970755238e+03 1.778279410038922776e+02
4.143027156964263668e+03 3.162277660168379612e+02
