# Temperature (K), Pressure (bars)
2.187732058701863480e+03 9.999999999999999547e-07
2.216459342164715054e+03 1.778279410038922901e-06
2.245186625627566173e+03 3.162277660168379191e-06
2.278104369921555644e+03 5.623413251903491208e-06
2.314050661630681589e+03 1.000000000000000082e-05
2.350928985657186331e+03 1.778279410038922901e-05
2.386619471270124450e+03 3.162277660168379530e-05
2.418105253064375574e+03 5.623413251903490700e-05
2.443917033060368340e+03 1.000000000000000048e-04
2.465864756253649830e+03 1.778279410038922698e-04
2.488824869382191537e+03 3.162277660168379394e-04
2.518421046866892084e+03 5.623413251903490971e-04
2.558411531498717522e+03 1.000000000000000021e-03
2.610774344648883016e+03 1.778279410038922752e-03
2.675582038204531273e+03 3.162277660168379394e-03
2.753132922418592898e+03 5.623413251903490971e-03
2.840215575656722194e+03 1.000000000000000021e-02
2.938732274680551654e+03 1.778279410038922925e-02
3.061896249029580304e+03 3.162277660168379134e-02
3.213214579625002443e+03 5.623413251903491145e-02
3.395425214634067288e+03 1.000000000000000056e-01
3.592982436539472474e+03 1.778279410038922925e-01
3.827713894158468520e+03 3.162277660168379412e-01
4.096641940017921115e+03 5.623413251903490728e-01
4.430334180365640350e+03 1.000000000000000000e+00
4.888002979089053952e+03 1.778279410038922759e+00
5.591739590180417508e+03 3.162277660168379523e+00
6.726390223194565806e+03 5.623413251903491172e+00
8.294690901277323064e+03 1.000000000000000000e+01
1.000000000000000000e+04 1.778279410038922848e+01
1.000000000000000000e+04 3.162277660168379256e+01
1.000000000000000000e+04 5.623413251903490817e+01
1.000000000000000000e+04 1.000000000000000000e+02
1.000000000000000000e+04 1.778279410038922776e+02
1.000000000000000000e+04 3.162277660168379612e+02
