# Temperature (K), Pressure (bars)
1.644289302870003894e+03 9.999999999999999547e-07
1.655176326195988622e+03 1.778279410038922901e-06
1.666063349534294957e+03 3.162277660168379191e-06
1.689123111521972078e+03 5.623413251903491208e-06
1.728521234201763491e+03 1.000000000000000082e-05
1.786947298211187899e+03 1.778279410038922901e-05
1.852262568847871989e+03 3.162277660168379530e-05
1.912489865125249707e+03 5.623413251903490700e-05
1.967037786540094658e+03 1.000000000000000048e-04
2.015732264243869395e+03 1.778279410038922698e-04
2.058081301726691436e+03 3.162277660168379394e-04
2.094899368051322199e+03 5.623413251903490971e-04
2.128493860873654285e+03 1.000000000000000021e-03
2.161297385061371642e+03 1.778279410038922752e-03
2.195111289916173519e+03 3.162277660168379394e-03
2.232044287813219398e+03 5.623413251903490971e-03
2.274546509607295775e+03 1.000000000000000021e-02
2.326033671958528885e+03 1.778279410038922925e-02
2.388923230388221782e+03 3.162277660168379134e-02
2.469905969973312494e+03 5.623413251903491145e-02
2.585010532689952015e+03 1.000000000000000056e-01
2.733465366178770637e+03 1.778279410038922925e-01
2.896030914392837076e+03 3.162277660168379412e-01
3.066641847229240739e+03 5.623413251903490728e-01
3.249297823775478719e+03 1.000000000000000000e+00
3.445452160414167338e+03 1.778279410038922759e+00
3.656332237721583624e+03 3.162277660168379523e+00
3.884695264143836084e+03 5.623413251903491172e+00
4.135246165127389759e+03 1.000000000000000000e+01
4.414323536109604902e+03 1.778279410038922848e+01
4.729890938853116495e+03 3.162277660168379256e+01
5.092597145913239729e+03 5.623413251903490817e+01
5.520274261243728688e+03 1.000000000000000000e+02
6.029351497777759505e+03 1.778279410038922776e+02
6.647822946131220306e+03 3.162277660168379612e+02
