# Temperature (K), Pressure (bars)
2.059745799699750933e+03 9.999999999999999547e-07
2.071427692668426062e+03 1.778279410038922901e-06
2.083109585637311284e+03 3.162277660168379191e-06
2.098201562726969314e+03 5.623413251903491208e-06
2.119095896152187379e+03 1.000000000000000082e-05
2.144857385162114042e+03 1.778279410038922901e-05
2.173041722328728611e+03 3.162277660168379530e-05
2.201285689082327281e+03 5.623413251903490700e-05
2.228535882004024188e+03 1.000000000000000048e-04
2.256024844983707226e+03 1.778279410038922698e-04
2.286187951661171610e+03 3.162277660168379394e-04
2.321180792913494315e+03 5.623413251903490971e-04
2.362592786759214050e+03 1.000000000000000021e-03
2.410688935316572042e+03 1.778279410038922752e-03
2.466243046991864958e+03 3.162277660168379394e-03
2.526262747990870594e+03 5.623413251903490971e-03
2.596592422115505542e+03 1.000000000000000021e-02
2.694196827332816611e+03 1.778279410038922925e-02
2.815529300207943834e+03 3.162277660168379134e-02
2.950915622145930683e+03 5.623413251903491145e-02
3.102406804179492610e+03 1.000000000000000056e-01
3.272858945317361304e+03 1.778279410038922925e-01
3.464434371330095018e+03 3.162277660168379412e-01
3.678152474038095534e+03 5.623413251903490728e-01
3.916422545463400638e+03 1.000000000000000000e+00
4.186236058826735643e+03 1.778279410038922759e+00
4.500833410168574119e+03 3.162277660168379523e+00
4.868672231480029041e+03 5.623413251903491172e+00
5.338914959590932085e+03 1.000000000000000000e+01
5.983764198017111084e+03 1.778279410038922848e+01
6.940731346982105606e+03 3.162277660168379256e+01
8.358474261277557162e+03 5.623413251903490817e+01
1.020419052509238463e+04 1.000000000000000000e+02
1.242397179469442926e+04 1.778279410038922776e+02
1.507250068034482501e+04 3.162277660168379612e+02
