# Temperature (K), Pressure (bars)
1.000542419059539498e+03 3.162277660168379394e-03
1.044357098142670111e+03 5.623413251903490971e-03
1.088171777560373584e+03 1.000000000000000021e-02
1.129847738036105511e+03 1.778279410038922925e-02
1.171463076994815310e+03 3.162277660168379134e-02
1.215730736648427865e+03 5.623413251903491145e-02
1.263183576685930802e+03 1.000000000000000056e-01
1.314075909173893706e+03 1.778279410038922925e-01
1.373517671430490736e+03 3.162277660168379412e-01
1.453787833981140921e+03 5.623413251903490728e-01
1.575336361876848741e+03 1.000000000000000000e+00
1.736822033423249422e+03 1.778279410038922759e+00
1.939575354546469271e+03 3.162277660168379523e+00
2.204856100198459444e+03 5.623413251903491172e+00
2.503485410462315031e+03 1.000000000000000000e+01
2.801008137954256199e+03 1.778279410038922848e+01
3.100148615418590907e+03 3.162277660168379256e+01
3.401823026719587688e+03 5.623413251903490817e+01
3.713336155926338961e+03 1.000000000000000000e+02
4.040150076540393457e+03 1.778279410038922776e+02
4.396411613228276110e+03 3.162277660168379612e+02
