# Temperature (K), Pressure (bars)
1.354198850473645052e+03 9.999999999999999547e-07
1.376420751263430247e+03 1.778279410038922901e-06
1.398642652057075338e+03 3.162277660168379191e-06
1.426682330068243573e+03 5.623413251903491208e-06
1.462518737660156603e+03 1.000000000000000082e-05
1.512848758520725369e+03 1.778279410038922901e-05
1.574619185661154916e+03 3.162277660168379530e-05
1.635824712042933243e+03 5.623413251903490700e-05
1.693815381466276449e+03 1.000000000000000048e-04
1.753206276792877588e+03 1.778279410038922698e-04
1.817629297832791963e+03 3.162277660168379394e-04
1.885137638408984913e+03 5.623413251903490971e-04
1.956496315620203404e+03 1.000000000000000021e-03
2.032708778226452750e+03 1.778279410038922752e-03
2.122808177729990348e+03 3.162277660168379394e-03
2.241007324239858917e+03 5.623413251903490971e-03
2.374948505890250999e+03 1.000000000000000021e-02
2.511519028891658763e+03 1.778279410038922925e-02
2.653304952465254246e+03 3.162277660168379134e-02
2.801943230954447245e+03 5.623413251903491145e-02
2.959316026775540195e+03 1.000000000000000056e-01
3.127441240622058103e+03 1.778279410038922925e-01
3.307913275124888969e+03 3.162277660168379412e-01
3.501775751851439054e+03 5.623413251903490728e-01
3.710972781116873193e+03 1.000000000000000000e+00
3.939866069578676615e+03 1.778279410038922759e+00
4.195277134057379953e+03 3.162277660168379523e+00
4.486581100131174026e+03 5.623413251903491172e+00
4.824879420894813848e+03 1.000000000000000000e+01
5.233266616415428871e+03 1.778279410038922848e+01
5.743673705710662034e+03 3.162277660168379256e+01
6.411672410334529559e+03 5.623413251903490817e+01
7.337110137330046200e+03 1.000000000000000000e+02
8.667665687088090635e+03 1.778279410038922776e+02
1.044770694210253896e+04 3.162277660168379612e+02
