# Temperature (K), Pressure (bars)
9.216057414522647377e+02 1.000000000000000048e-04
9.665449578108937203e+02 1.778279410038922698e-04
1.011484174229897462e+03 3.162277660168379394e-04
1.055833394692058164e+03 5.623413251903490971e-04
1.101484015831270654e+03 1.000000000000000021e-03
1.149485393675795649e+03 1.778279410038922752e-03
1.199992860894201840e+03 3.162277660168379394e-03
1.253595201607223999e+03 5.623413251903490971e-03
1.312460453160469797e+03 1.000000000000000021e-02
1.380742642964952665e+03 1.778279410038922925e-02
1.463358303469950442e+03 3.162277660168379134e-02
1.562045481959120252e+03 5.623413251903491145e-02
1.682376607151520602e+03 1.000000000000000056e-01
1.821840080295392909e+03 1.778279410038922925e-01
1.997638932663998276e+03 3.162277660168379412e-01
2.233474026842426156e+03 5.623413251903490728e-01
2.487432942520121287e+03 1.000000000000000000e+00
2.725247228323822583e+03 1.778279410038922759e+00
2.955597968114074320e+03 3.162277660168379523e+00
3.184836861179853258e+03 5.623413251903491172e+00
3.419284347110932686e+03 1.000000000000000000e+01
3.665358778963221084e+03 1.778279410038922848e+01
3.930065918754518862e+03 3.162277660168379256e+01
4.219244812005669701e+03 5.623413251903490817e+01
4.540965582294231353e+03 1.000000000000000000e+02
4.895151496590155148e+03 1.778279410038922776e+02
5.303773497128753661e+03 3.162277660168379612e+02
