# Temperature (K), Pressure (bars)
1.068444734811856506e+03 3.162277660168379394e-04
1.112048514275699745e+03 5.623413251903490971e-04
1.155652289745698909e+03 1.000000000000000021e-03
1.194831924719977906e+03 1.778279410038922752e-03
1.230670310510522540e+03 3.162277660168379394e-03
1.264201248477402942e+03 5.623413251903490971e-03
1.293776303845604616e+03 1.000000000000000021e-02
1.323355782790915327e+03 1.778279410038922925e-02
1.370702151867117209e+03 3.162277660168379134e-02
1.439407453287316912e+03 5.623413251903491145e-02
1.526708156618841713e+03 1.000000000000000056e-01
1.641418772589760465e+03 1.778279410038922925e-01
1.763868448403711454e+03 3.162277660168379412e-01
1.875548976103649693e+03 5.623413251903490728e-01
1.987940766186523888e+03 1.000000000000000000e+00
2.124758624996898106e+03 1.778279410038922759e+00
2.334901819974763384e+03 3.162277660168379523e+00
2.619359925586787995e+03 5.623413251903491172e+00
2.909065309303595768e+03 1.000000000000000000e+01
3.181480100718370522e+03 1.778279410038922848e+01
3.457550741528901199e+03 3.162277660168379256e+01
3.745511486264105315e+03 5.623413251903490817e+01
4.053000522269363501e+03 1.000000000000000000e+02
4.384268756629349809e+03 1.778279410038922776e+02
4.754819278515473343e+03 3.162277660168379612e+02
