# Temperature (K), Pressure (bars)
1.424704176941349715e+03 9.999999999999999547e-07
1.446360536970551948e+03 1.778279410038922901e-06
1.468016897003613394e+03 3.162277660168379191e-06
1.499548835839672392e+03 5.623413251903491208e-06
1.535320512030549025e+03 1.000000000000000082e-05
1.571452315109347637e+03 1.778279410038922901e-05
1.611285816013854401e+03 3.162277660168379530e-05
1.656174796257615071e+03 5.623413251903490700e-05
1.705108140595186796e+03 1.000000000000000048e-04
1.757433376947087481e+03 1.778279410038922698e-04
1.814411300131293274e+03 3.162277660168379394e-04
1.875402486885878716e+03 5.623413251903490971e-04
1.938721336031267356e+03 1.000000000000000021e-03
2.007447804081123195e+03 1.778279410038922752e-03
2.081359035031737221e+03 3.162277660168379394e-03
2.170922538006377181e+03 5.623413251903490971e-03
2.292382854936249714e+03 1.000000000000000021e-02
2.430135190422179676e+03 1.778279410038922925e-02
2.569339921249797044e+03 3.162277660168379134e-02
2.713955733102048725e+03 5.623413251903491145e-02
2.865915174947677770e+03 1.000000000000000056e-01
3.027297226620007677e+03 1.778279410038922925e-01
3.200070668294282768e+03 3.162277660168379412e-01
3.385459554811894122e+03 5.623413251903490728e-01
3.584463978350801426e+03 1.000000000000000000e+00
3.799646378641472893e+03 1.778279410038922759e+00
4.035884156258372968e+03 3.162277660168379523e+00
4.299959831810665492e+03 5.623413251903491172e+00
4.600882254577617459e+03 1.000000000000000000e+01
4.951750053723148085e+03 1.778279410038922848e+01
5.371084565056976317e+03 3.162277660168379256e+01
5.886904399258555713e+03 5.623413251903490817e+01
6.545043673362581103e+03 1.000000000000000000e+02
7.424170940134160446e+03 1.778279410038922776e+02
8.646854435763385482e+03 3.162277660168379612e+02
