# Temperature (K), Pressure (bars)
2.283132958542079450e+03 9.999999999999999547e-07
2.305977341110356974e+03 1.778279410038922901e-06
2.328821723678645867e+03 3.162277660168379191e-06
2.350602326868486671e+03 5.623413251903491208e-06
2.373424220291833990e+03 1.000000000000000082e-05
2.395796503924733315e+03 1.778279410038922901e-05
2.415977048591576477e+03 3.162277660168379530e-05
2.431752800381311772e+03 5.623413251903490700e-05
2.439628747447861315e+03 1.000000000000000048e-04
2.441606652617386317e+03 1.778279410038922698e-04
2.445984205549390481e+03 3.162277660168379394e-04
2.460092336544445971e+03 5.623413251903490971e-04
2.485682879190620497e+03 1.000000000000000021e-03
2.522011264507190845e+03 1.778279410038922752e-03
2.568228371777551274e+03 3.162277660168379394e-03
2.626020222919193657e+03 5.623413251903490971e-03
2.695485520169245319e+03 1.000000000000000021e-02
2.783526605539362208e+03 1.778279410038922925e-02
2.899805477244480699e+03 3.162277660168379134e-02
3.034410067357105618e+03 5.623413251903491145e-02
3.181112293341841905e+03 1.000000000000000056e-01
3.346372032568808208e+03 1.778279410038922925e-01
3.535007070892893807e+03 3.162277660168379412e-01
3.752296963407094609e+03 5.623413251903490728e-01
4.003994974228688079e+03 1.000000000000000000e+00
4.300053035377204651e+03 1.778279410038922759e+00
4.632323507007738954e+03 3.162277660168379523e+00
5.053245585650117391e+03 5.623413251903491172e+00
5.623897013122156750e+03 1.000000000000000000e+01
6.466512659791547776e+03 1.778279410038922848e+01
7.753166516644672811e+03 3.162277660168379256e+01
9.486258820894012388e+03 5.623413251903490817e+01
1.156911940089724158e+04 1.000000000000000000e+02
1.408616780197009575e+04 1.778279410038922776e+02
1.708842903987834870e+04 3.162277660168379612e+02
