# Temperature (K), Pressure (bars)
8.072309175094761713e+02 1.000000000000000048e-04
8.567148531341009630e+02 1.778279410038922698e-04
9.061987901158775003e+02 3.162277660168379394e-04
9.541989513731863326e+02 5.623413251903490971e-04
1.002096020712323934e+03 1.000000000000000021e-03
1.051329294264046439e+03 1.778279410038922752e-03
1.104045960382638668e+03 3.162277660168379394e-03
1.162644533277780056e+03 5.623413251903490971e-03
1.232244516912321387e+03 1.000000000000000021e-02
1.315448904725659531e+03 1.778279410038922925e-02
1.429799380247387262e+03 3.162277660168379134e-02
1.603823761988355727e+03 5.623413251903491145e-02
1.831302532918560701e+03 1.000000000000000056e-01
2.084224726297456073e+03 1.778279410038922925e-01
2.333736519660851627e+03 3.162277660168379412e-01
2.564148406972429711e+03 5.623413251903490728e-01
2.779590320979652915e+03 1.000000000000000000e+00
2.987782170788669646e+03 1.778279410038922759e+00
3.196319527239052604e+03 3.162277660168379523e+00
3.411747870250382221e+03 5.623413251903491172e+00
3.639666795913453825e+03 1.000000000000000000e+01
3.885468339152670978e+03 1.778279410038922848e+01
4.157241557134111645e+03 3.162277660168379256e+01
4.459329087464809163e+03 5.623413251903490817e+01
4.799174600360892327e+03 1.000000000000000000e+02
5.180247695351662514e+03 1.778279410038922776e+02
5.626064139236139454e+03 3.162277660168379612e+02
