# Temperature (K), Pressure (bars)
1.087264234358051453e+03 1.000000000000000048e-04
1.123418385859055206e+03 1.778279410038922698e-04
1.159572539664970236e+03 3.162277660168379394e-04
1.199159830589505191e+03 5.623413251903490971e-04
1.243290864562761271e+03 1.000000000000000021e-03
1.292549249771474933e+03 1.778279410038922752e-03
1.348321638624143588e+03 3.162277660168379394e-03
1.409438635207032803e+03 5.623413251903490971e-03
1.475456160093205654e+03 1.000000000000000021e-02
1.553579507067409850e+03 1.778279410038922925e-02
1.638753988584318677e+03 3.162277660168379134e-02
1.720935068817290812e+03 5.623413251903491145e-02
1.804889598961500269e+03 1.000000000000000056e-01
1.905461211425992587e+03 1.778279410038922925e-01
2.024807604732743357e+03 3.162277660168379412e-01
2.185795271798182966e+03 5.623413251903490728e-01
2.417665231212325580e+03 1.000000000000000000e+00
2.670008440928291748e+03 1.778279410038922759e+00
2.905234320222265069e+03 3.162277660168379523e+00
3.138152385684742057e+03 5.623413251903491172e+00
3.375438917847970060e+03 1.000000000000000000e+01
3.622997257001261460e+03 1.778279410038922848e+01
3.888561749934651289e+03 3.162277660168379256e+01
4.177952492505112787e+03 5.623413251903490817e+01
4.498016474909507451e+03 1.000000000000000000e+02
4.851705104743549782e+03 1.778279410038922776e+02
5.258739924184948904e+03 3.162277660168379612e+02
