# Temperature (K), Pressure (bars)
1.207193452656788850e+03 1.778279410038922901e-06
1.241279177568090063e+03 3.162277660168379191e-06
1.275364902518752842e+03 5.623413251903491208e-06
1.315680106261287619e+03 1.000000000000000082e-05
1.361449942370117924e+03 1.778279410038922901e-05
1.413622639376233565e+03 3.162277660168379530e-05
1.472147532318564117e+03 5.623413251903490700e-05
1.538580289230996186e+03 1.000000000000000048e-04
1.616180395518946625e+03 1.778279410038922698e-04
1.698506086290621624e+03 3.162277660168379394e-04
1.781848909801651644e+03 5.623413251903490971e-04
1.869547202036291765e+03 1.000000000000000021e-03
1.970690124501200899e+03 1.778279410038922752e-03
2.098007202728586890e+03 3.162277660168379394e-03
2.243671852643438342e+03 5.623413251903490971e-03
2.392472942744414922e+03 1.000000000000000021e-02
2.542397544337507497e+03 1.778279410038922925e-02
2.695663417779397150e+03 3.162277660168379134e-02
2.854438863508931263e+03 5.623413251903491145e-02
3.020876991988569898e+03 1.000000000000000056e-01
3.196960319575438007e+03 1.778279410038922925e-01
3.384152521837993845e+03 3.162277660168379412e-01
3.584322845524833610e+03 5.623413251903490728e-01
3.801444056977075888e+03 1.000000000000000000e+00
4.042017707735191379e+03 1.778279410038922759e+00
4.315065778667512859e+03 3.162277660168379523e+00
4.633327199797173307e+03 5.623413251903491172e+00
5.012659469573154638e+03 1.000000000000000000e+01
5.488870582945234673e+03 1.778279410038922848e+01
6.118733775219886411e+03 3.162277660168379256e+01
7.006759636358768148e+03 5.623413251903490817e+01
8.308923314349603970e+03 1.000000000000000000e+02
1.008156818282333370e+04 1.778279410038922776e+02
1.223013271064059700e+04 3.162277660168379612e+02
