# Temperature (K), Pressure (bars)
9.828210911708104049e+02 5.623413251903490700e-05
1.026272715941396655e+03 1.000000000000000048e-04
1.069724339517090357e+03 1.778279410038922698e-04
1.109778152066256325e+03 3.162277660168379394e-04
1.148280875834784638e+03 5.623413251903490971e-04
1.206617313754621136e+03 1.000000000000000021e-03
1.296481400803982069e+03 1.778279410038922752e-03
1.410760329236784628e+03 3.162277660168379394e-03
1.548142704298514218e+03 5.623413251903490971e-03
1.663941697858404950e+03 1.000000000000000021e-02
1.730567395660279999e+03 1.778279410038922925e-02
1.780606233057916597e+03 3.162277660168379134e-02
1.840285120952132957e+03 5.623413251903491145e-02
1.910036782337546128e+03 1.000000000000000056e-01
1.993728372637603115e+03 1.778279410038922925e-01
2.091550516227928711e+03 3.162277660168379412e-01
2.228459678931756116e+03 5.623413251903490728e-01
2.443567155957648538e+03 1.000000000000000000e+00
2.689543565859234604e+03 1.778279410038922759e+00
2.922984641933550392e+03 3.162277660168379523e+00
3.155059255407678847e+03 5.623413251903491172e+00
3.391777461890227642e+03 1.000000000000000000e+01
3.639096299923397510e+03 1.778279410038922848e+01
3.904873959195562747e+03 3.162277660168379256e+01
4.194856505155795276e+03 5.623413251903490817e+01
4.515913520830446942e+03 1.000000000000000000e+02
4.871269356620228791e+03 1.778279410038922776e+02
5.280300706311196336e+03 3.162277660168379612e+02
