# Temperature (K), Pressure (bars)
8.678661063052492182e+02 1.000000000000000048e-04
9.198840661689069975e+02 1.778279410038922698e-04
9.719020274180805927e+02 3.162277660168379394e-04
1.023382892429368894e+03 5.623413251903490971e-04
1.074332760491691943e+03 1.000000000000000021e-03
1.126131830229183151e+03 1.778279410038922752e-03
1.179971851587764149e+03 3.162277660168379394e-03
1.237311186565005983e+03 5.623413251903490971e-03
1.301109030258572375e+03 1.000000000000000021e-02
1.376128427067312941e+03 1.778279410038922925e-02
1.475600654968219942e+03 3.162277660168379134e-02
1.608254575185354270e+03 5.623413251903491145e-02
1.788021624458898486e+03 1.000000000000000056e-01
2.023313011549636030e+03 1.778279410038922925e-01
2.273783057184961763e+03 3.162277660168379412e-01
2.507270764295281879e+03 5.623413251903490728e-01
2.727555788427901007e+03 1.000000000000000000e+00
2.940766612739895209e+03 1.778279410038922759e+00
3.153359034935124782e+03 3.162277660168379523e+00
3.371341474660306631e+03 5.623413251903491172e+00
3.600422805781708576e+03 1.000000000000000000e+01
3.846210790972004816e+03 1.778279410038922848e+01
4.116674242865511587e+03 3.162277660168379256e+01
4.416577818487277000e+03 5.623413251903490817e+01
4.753256227477284483e+03 1.000000000000000000e+02
5.130111332719682650e+03 1.778279410038922776e+02
5.570039950909185791e+03 3.162277660168379612e+02
