# Temperature (K), Pressure (bars)
7.778149306520967912e+02 3.162277660168379394e-04
8.236151669198786749e+02 5.623413251903490971e-04
8.694154042853982673e+02 1.000000000000000021e-03
9.145520890607112960e+02 1.778279410038922752e-03
9.592741161137454355e+02 3.162277660168379394e-03
1.004801998941188458e+03 5.623413251903490971e-03
1.052544431503667056e+03 1.000000000000000021e-02
1.105745085447373640e+03 1.778279410038922925e-02
1.168243769566426636e+03 3.162277660168379134e-02
1.246929300241884221e+03 5.623413251903491145e-02
1.346660749015960846e+03 1.000000000000000056e-01
1.488786908559270614e+03 1.778279410038922925e-01
1.699874338516305443e+03 3.162277660168379412e-01
1.957730834280023373e+03 5.623413251903490728e-01
2.227189032002903332e+03 1.000000000000000000e+00
2.492590267308490183e+03 1.778279410038922759e+00
2.746656246202264356e+03 3.162277660168379523e+00
2.992270155845927547e+03 5.623413251903491172e+00
3.236282597762549813e+03 1.000000000000000000e+01
3.486370161804520649e+03 1.778279410038922848e+01
3.751652372247510357e+03 3.162277660168379256e+01
4.037409534653081209e+03 5.623413251903490817e+01
4.350329770144020586e+03 1.000000000000000000e+02
4.693421487296410305e+03 1.778279410038922776e+02
5.084714431313905152e+03 3.162277660168379612e+02
