# Temperature (K), Pressure (bars)
9.323825556472304470e+02 1.000000000000000048e-04
9.772853452886404284e+02 1.778279410038922698e-04
1.022188135956013866e+03 3.162277660168379394e-04
1.067670980614279870e+03 5.623413251903490971e-04
1.115530816218152722e+03 1.000000000000000021e-03
1.165657415865189023e+03 1.778279410038922752e-03
1.218010219132281236e+03 3.162277660168379394e-03
1.272965114073410177e+03 5.623413251903490971e-03
1.332441007718363835e+03 1.000000000000000021e-02
1.406944860991127825e+03 1.778279410038922925e-02
1.525290976934402806e+03 3.162277660168379134e-02
1.689823209936848343e+03 5.623413251903491145e-02
1.887443835820063214e+03 1.000000000000000056e-01
2.122700430899188177e+03 1.778279410038922925e-01
2.363963472470961278e+03 3.162277660168379412e-01
2.585650600812750781e+03 5.623413251903490728e-01
2.797193701518316630e+03 1.000000000000000000e+00
3.005076918277919958e+03 1.778279410038922759e+00
3.214757160819875935e+03 3.162277660168379523e+00
3.431537678226966364e+03 5.623413251903491172e+00
3.660830016774904379e+03 1.000000000000000000e+01
3.908129799503983122e+03 1.778279410038922848e+01
4.181343853297110400e+03 3.162277660168379256e+01
4.485520416809319613e+03 5.623413251903490817e+01
4.828311424480742062e+03 1.000000000000000000e+02
5.213231892040097591e+03 1.778279410038922776e+02
5.664428616530302861e+03 3.162277660168379612e+02
