# Temperature (K), Pressure (bars)
2.420158770822061797e+03 9.999999999999999547e-07
2.423662806285915394e+03 1.778279410038922901e-06
2.427166841749768537e+03 3.162277660168379191e-06
2.445668225846158748e+03 5.623413251903491208e-06
2.478195171886694425e+03 1.000000000000000082e-05
2.513345700918516741e+03 1.778279410038922901e-05
2.549104851531475106e+03 3.162277660168379530e-05
2.588824233063416614e+03 5.623413251903490700e-05
2.632407876791053241e+03 1.000000000000000048e-04
2.679689870163681917e+03 1.778279410038922698e-04
2.730497126338095768e+03 3.162277660168379394e-04
2.784744881972927942e+03 5.623413251903490971e-04
2.841667733652604511e+03 1.000000000000000021e-03
2.898291222347384974e+03 1.778279410038922752e-03
2.951194723240226267e+03 3.162277660168379394e-03
2.996819543101608815e+03 5.623413251903490971e-03
3.035043152416910743e+03 1.000000000000000021e-02
3.069800651343604841e+03 1.778279410038922925e-02
3.115754970434751613e+03 3.162277660168379134e-02
3.174734042685849090e+03 5.623413251903491145e-02
3.264727196655127500e+03 1.000000000000000056e-01
3.423188829664598416e+03 1.778279410038922925e-01
3.625104708122713419e+03 3.162277660168379412e-01
3.852639430133678616e+03 5.623413251903490728e-01
4.132677531350310346e+03 1.000000000000000000e+00
4.439781939762201546e+03 1.778279410038922759e+00
4.828225012354286264e+03 3.162277660168379523e+00
5.357322503279066950e+03 5.623413251903491172e+00
6.152452232051769897e+03 1.000000000000000000e+01
7.390697718204853118e+03 1.778279410038922848e+01
9.068589441009477014e+03 3.162277660168379256e+01
1.105976852005617366e+04 5.623413251903490817e+01
1.345813580642248962e+04 1.000000000000000000e+02
1.638503699678732664e+04 1.778279410038922776e+02
1.987734879674301919e+04 3.162277660168379612e+02
