# Temperature (K), Pressure (bars)
1.917190844066595901e+03 5.623413251903491208e-06
1.921093793502714334e+03 1.000000000000000082e-05
1.924996746758609333e+03 1.778279410038922901e-05
1.937482770682780028e+03 3.162277660168379530e-05
1.958357492030453614e+03 5.623413251903490700e-05
1.987205229767761011e+03 1.000000000000000048e-04
2.026280075589150556e+03 1.778279410038922698e-04
2.073164595354516223e+03 3.162277660168379394e-04
2.123925398144825976e+03 5.623413251903490971e-04
2.176751199543184612e+03 1.000000000000000021e-03
2.228660335012115411e+03 1.778279410038922752e-03
2.277401820814736766e+03 3.162277660168379394e-03
2.322585645674318584e+03 5.623413251903490971e-03
2.364434831528881205e+03 1.000000000000000021e-02
2.405700652854529380e+03 1.778279410038922925e-02
2.452889198934981323e+03 3.162277660168379134e-02
2.512183170917830921e+03 5.623413251903491145e-02
2.608494517323787477e+03 1.000000000000000056e-01
2.756004462878184768e+03 1.778279410038922925e-01
2.920890076877173215e+03 3.162277660168379412e-01
3.087565566780372137e+03 5.623413251903490728e-01
3.267462510147634930e+03 1.000000000000000000e+00
3.462973503779249313e+03 1.778279410038922759e+00
3.674983677035838355e+03 3.162277660168379523e+00
3.905497528681221866e+03 5.623413251903491172e+00
4.158758390487837460e+03 1.000000000000000000e+01
4.441079981132255853e+03 1.778279410038922848e+01
4.760947099186771993e+03 3.162277660168379256e+01
5.132381789624442717e+03 5.623413251903490817e+01
5.568729325111235084e+03 1.000000000000000000e+02
6.091386101132979093e+03 1.778279410038922776e+02
6.732558809965647924e+03 3.162277660168379612e+02
