# Temperature (K), Pressure (bars)
8.173173994108453826e+02 3.162277660168379394e-04
8.677475593816270703e+02 5.623413251903490971e-04
9.181777207528024292e+02 1.000000000000000021e-03
9.665982192962997033e+02 1.778279410038922752e-03
1.014478153435074773e+03 3.162277660168379394e-03
1.062776534674232835e+03 5.623413251903490971e-03
1.112544411504181426e+03 1.000000000000000021e-02
1.166109892120502082e+03 1.778279410038922925e-02
1.227570090271275831e+03 3.162277660168379134e-02
1.301547645590916545e+03 5.623413251903491145e-02
1.398503404427577834e+03 1.000000000000000056e-01
1.536470027703843925e+03 1.778279410038922925e-01
1.730473296164047269e+03 3.162277660168379412e-01
1.976766864199945985e+03 5.623413251903490728e-01
2.245216667843572395e+03 1.000000000000000000e+00
2.508487481008911345e+03 1.778279410038922759e+00
2.760597061527575534e+03 3.162277660168379523e+00
3.005116211528060376e+03 5.623413251903491172e+00
3.248687383141395003e+03 1.000000000000000000e+01
3.498726613875775456e+03 1.778279410038922848e+01
3.764242083180574809e+03 3.162277660168379256e+01
4.050602831697101919e+03 5.623413251903490817e+01
4.364571643663251052e+03 1.000000000000000000e+02
4.709397326932325996e+03 1.778279410038922776e+02
5.102919040023874004e+03 3.162277660168379612e+02
