# Temperature (K), Pressure (bars)
8.918167870273332483e+02 1.000000000000000048e-04
9.476427071533740900e+02 1.778279410038922698e-04
1.003468628713596672e+03 3.162277660168379394e-04
1.057005270383647940e+03 5.623413251903490971e-04
1.109820988579697087e+03 1.000000000000000021e-03
1.164069764043407531e+03 1.778279410038922752e-03
1.221279812193432463e+03 3.162277660168379394e-03
1.284292830109311581e+03 5.623413251903490971e-03
1.355642815309240177e+03 1.000000000000000021e-02
1.443678344996086935e+03 1.778279410038922925e-02
1.557949497995225329e+03 3.162277660168379134e-02
1.724428242399062356e+03 5.623413251903491145e-02
1.958186510903200769e+03 1.000000000000000056e-01
2.209061342227104888e+03 1.778279410038922925e-01
2.438878897467604929e+03 3.162277660168379412e-01
2.653118285070906950e+03 5.623413251903490728e-01
2.858287113116131877e+03 1.000000000000000000e+00
3.061070409375983218e+03 1.778279410038922759e+00
3.267230528398138176e+03 3.162277660168379523e+00
3.482184290935801073e+03 5.623413251903491172e+00
3.711147801829106811e+03 1.000000000000000000e+01
3.959428375830075311e+03 1.778279410038922848e+01
4.235046527615972991e+03 3.162277660168379256e+01
4.542966890106178653e+03 5.623413251903490817e+01
4.891091500807438024e+03 1.000000000000000000e+02
5.283148556078930596e+03 1.778279410038922776e+02
5.744644718618411389e+03 3.162277660168379612e+02
