# Temperature (K), Pressure (bars)
1.008218089245546821e+03 9.999999999999999547e-07
1.066576742379173083e+03 1.778279410038922901e-06
1.124935395512799460e+03 3.162277660168379191e-06
1.182858978906829179e+03 5.623413251903491208e-06
1.241004180672220855e+03 1.000000000000000082e-05
1.298035883847849618e+03 1.778279410038922901e-05
1.360948005595935228e+03 3.162277660168379530e-05
1.434885528982728829e+03 5.623413251903490700e-05
1.518633916162948481e+03 1.000000000000000048e-04
1.613387830827085736e+03 1.778279410038922698e-04
1.707867705024761563e+03 3.162277660168379394e-04
1.795197298317288187e+03 5.623413251903490971e-04
1.880923391562588904e+03 1.000000000000000021e-03
1.974324043087610789e+03 1.778279410038922752e-03
2.091037137363433430e+03 3.162277660168379394e-03
2.231922143020637577e+03 5.623413251903490971e-03
2.381867703798660841e+03 1.000000000000000021e-02
2.533877608160788441e+03 1.778279410038922925e-02
2.689818719210447853e+03 3.162277660168379134e-02
2.851747336365158844e+03 5.623413251903491145e-02
3.021564283981602784e+03 1.000000000000000056e-01
3.200391111022654513e+03 1.778279410038922925e-01
3.388939122470422717e+03 3.162277660168379412e-01
3.589451064373887220e+03 5.623413251903490728e-01
3.806740388388934662e+03 1.000000000000000000e+00
4.047710502571422694e+03 1.778279410038922759e+00
4.321537787212084368e+03 3.162277660168379523e+00
4.641128097081984379e+03 5.623413251903491172e+00
5.023005901959060793e+03 1.000000000000000000e+01
5.502221401276278812e+03 1.778279410038922848e+01
6.133091115241843909e+03 3.162277660168379256e+01
7.014745678796925858e+03 5.623413251903490817e+01
8.307312110821127135e+03 1.000000000000000000e+02
1.007716875577278370e+04 1.778279410038922776e+02
1.222262086939428445e+04 3.162277660168379612e+02
