# Temperature (K), Pressure (bars)
1.757872553219902557e+03 9.999999999999999547e-07
1.777336956639011305e+03 1.778279410038922901e-06
1.796801360058120281e+03 3.162277660168379191e-06
1.822398026610735315e+03 5.623413251903491208e-06
1.853258624699531538e+03 1.000000000000000082e-05
1.889657067359141138e+03 1.778279410038922901e-05
1.932982253869429087e+03 3.162277660168379530e-05
1.982248530292562009e+03 5.623413251903490700e-05
2.036811317222501202e+03 1.000000000000000048e-04
2.095834544869516321e+03 1.778279410038922698e-04
2.159005979010374176e+03 3.162277660168379394e-04
2.227607115276671266e+03 5.623413251903490971e-04
2.306460582994759534e+03 1.000000000000000021e-03
2.400036270549610890e+03 1.778279410038922752e-03
2.505556708119833274e+03 3.162277660168379394e-03
2.619756056281277779e+03 5.623413251903490971e-03
2.742989982422751382e+03 1.000000000000000021e-02
2.876427570282737179e+03 1.778279410038922925e-02
3.022218404099222880e+03 3.162277660168379134e-02
3.184142576320011813e+03 5.623413251903491145e-02
3.370694216011595472e+03 1.000000000000000056e-01
3.563357561108320169e+03 1.778279410038922925e-01
3.787761527415056662e+03 3.162277660168379412e-01
4.055792349843773991e+03 5.623413251903490728e-01
4.370611454750453959e+03 1.000000000000000000e+00
4.789456099893344799e+03 1.778279410038922759e+00
5.410449397745457645e+03 3.162277660168379523e+00
6.403916461980144049e+03 5.623413251903491172e+00
7.867951886402576747e+03 1.000000000000000000e+01
9.624122484232695570e+03 1.778279410038922848e+01
1.000000000000000000e+04 3.162277660168379256e+01
1.000000000000000000e+04 5.623413251903490817e+01
1.000000000000000000e+04 1.000000000000000000e+02
1.000000000000000000e+04 1.778279410038922776e+02
1.000000000000000000e+04 3.162277660168379612e+02
