# Temperature (K), Pressure (bars)
1.597971688876007420e+03 1.778279410038922901e-05
1.618221859081552566e+03 3.162277660168379530e-05
1.638472032474695880e+03 5.623413251903490700e-05
1.663282621892182760e+03 1.000000000000000048e-04
1.695397914415008245e+03 1.778279410038922698e-04
1.733282980791322188e+03 3.162277660168379394e-04
1.772917499402504291e+03 5.623413251903490971e-04
1.814465188629334534e+03 1.000000000000000021e-03
1.856194203829465778e+03 1.778279410038922752e-03
1.896785703210432757e+03 3.162277660168379394e-03
1.938074920522981301e+03 5.623413251903490971e-03
1.981223679689195706e+03 1.000000000000000021e-02
2.027043078829956130e+03 1.778279410038922925e-02
2.076827815726100198e+03 3.162277660168379134e-02
2.131734964515957472e+03 5.623413251903491145e-02
2.197750578971911636e+03 1.000000000000000056e-01
2.276757203163149370e+03 1.778279410038922925e-01
2.389553656886964291e+03 3.162277660168379412e-01
2.563843698626926198e+03 5.623413251903490728e-01
2.768683957190395631e+03 1.000000000000000000e+00
2.973406900932963254e+03 1.778279410038922759e+00
3.183338992847310237e+03 3.162277660168379523e+00
3.402431560588698630e+03 5.623413251903491172e+00
3.634107515614763088e+03 1.000000000000000000e+01
3.882760975389286159e+03 1.778279410038922848e+01
4.155337185190634045e+03 3.162277660168379256e+01
4.458045085523974194e+03 5.623413251903490817e+01
4.798586394570713310e+03 1.000000000000000000e+02
5.180500310042569254e+03 1.778279410038922776e+02
5.627460893007424602e+03 3.162277660168379612e+02
