# Temperature (K), Pressure (bars)
1.019326011557659967e+03 9.999999999999999547e-07
1.052163987659224858e+03 1.778279410038922901e-06
1.085001963766471818e+03 3.162277660168379191e-06
1.130312366963775276e+03 5.623413251903491208e-06
1.187390217376345845e+03 1.000000000000000082e-05
1.251595895069368908e+03 1.778279410038922901e-05
1.313999783991244840e+03 3.162277660168379530e-05
1.370611489411369575e+03 5.623413251903490700e-05
1.425148062280058184e+03 1.000000000000000048e-04
1.489408635374754795e+03 1.778279410038922698e-04
1.573980241999794544e+03 3.162277660168379394e-04
1.658442394641267128e+03 5.623413251903490971e-04
1.727307175538363481e+03 1.000000000000000021e-03
1.792540145994699742e+03 1.778279410038922752e-03
1.861801748679718230e+03 3.162277660168379394e-03
1.940526623381259242e+03 5.623413251903490971e-03
2.028455045896574347e+03 1.000000000000000021e-02
2.142490549304567139e+03 1.778279410038922925e-02
2.302454189341057827e+03 3.162277660168379134e-02
2.474511795614320818e+03 5.623413251903491145e-02
2.637304087543280730e+03 1.000000000000000056e-01
2.802744816611839269e+03 1.778279410038922925e-01
2.974268303902191292e+03 3.162277660168379412e-01
3.153448802630074169e+03 5.623413251903490728e-01
3.341115642459720220e+03 1.000000000000000000e+00
3.539357279924936847e+03 1.778279410038922759e+00
3.752080127549708777e+03 3.162277660168379523e+00
3.984252073538714285e+03 5.623413251903491172e+00
4.241621680238134104e+03 1.000000000000000000e+01
4.531195731019583036e+03 1.778279410038922848e+01
4.862341364399279882e+03 3.162277660168379256e+01
5.251161743453861163e+03 5.623413251903490817e+01
5.712043978963377413e+03 1.000000000000000000e+02
6.270381539148504089e+03 1.778279410038922776e+02
6.965790973023592414e+03 3.162277660168379612e+02
