# Temperature (K), Pressure (bars)
1.303791349992717187e+03 9.999999999999999547e-07
1.335857989597640426e+03 1.778279410038922901e-06
1.367924629203192580e+03 3.162277660168379191e-06
1.404637016409944408e+03 5.623413251903491208e-06
1.445062014414358146e+03 1.000000000000000082e-05
1.489557203215547361e+03 1.778279410038922901e-05
1.542648998034760325e+03 3.162277660168379530e-05
1.609192747788101997e+03 5.623413251903490700e-05
1.682243270796447632e+03 1.000000000000000048e-04
1.753921066302188819e+03 1.778279410038922698e-04
1.826939038218751648e+03 3.162277660168379394e-04
1.904087353409845264e+03 5.623413251903490971e-04
1.985212414303560308e+03 1.000000000000000021e-03
2.079004996799225864e+03 1.778279410038922752e-03
2.196505560975740536e+03 3.162277660168379394e-03
2.328402320005988258e+03 5.623413251903490971e-03
2.463958020227699762e+03 1.000000000000000021e-02
2.604210086309270082e+03 1.778279410038922925e-02
2.750653327458550848e+03 3.162277660168379134e-02
2.905045284333796189e+03 5.623413251903491145e-02
3.069495178307591232e+03 1.000000000000000056e-01
3.246295367155341864e+03 1.778279410038922925e-01
3.437376063600241650e+03 3.162277660168379412e-01
3.644713707670481199e+03 5.623413251903490728e-01
3.872181405941607863e+03 1.000000000000000000e+00
4.126997768881543379e+03 1.778279410038922759e+00
4.420135724975731137e+03 3.162277660168379523e+00
4.760700141678493310e+03 5.623413251903491172e+00
5.182964174821207052e+03 1.000000000000000000e+01
5.732886527737588040e+03 1.778279410038922848e+01
6.488571855734360724e+03 3.162277660168379256e+01
7.578845577639886869e+03 5.623413251903490817e+01
9.157412300169149603e+03 1.000000000000000000e+02
1.114609477064150269e+04 1.778279410038922776e+02
1.351703043151754719e+04 3.162277660168379612e+02
