# Temperature (K), Pressure (bars)
1.728962902139523521e+03 9.999999999999999547e-07
1.741002352090473551e+03 1.778279410038922901e-06
1.753041802049638136e+03 3.162277660168379191e-06
1.768500847690570481e+03 5.623413251903491208e-06
1.789610572320345909e+03 1.000000000000000082e-05
1.818156142675777801e+03 1.778279410038922901e-05
1.853146838883463261e+03 3.162277660168379530e-05
1.894182941508059230e+03 5.623413251903490700e-05
1.941412063008857331e+03 1.000000000000000048e-04
1.994035492564291189e+03 1.778279410038922698e-04
2.051751415633118086e+03 3.162277660168379394e-04
2.115078069942652746e+03 5.623413251903490971e-04
2.184318449896252787e+03 1.000000000000000021e-03
2.264149915590701312e+03 1.778279410038922752e-03
2.360620866602089791e+03 3.162277660168379394e-03
2.469096244548267350e+03 5.623413251903490971e-03
2.584605870311017952e+03 1.000000000000000021e-02
2.708453864121224342e+03 1.778279410038922925e-02
2.842225377057879541e+03 3.162277660168379134e-02
2.988000371630730115e+03 5.623413251903491145e-02
3.148434982090132053e+03 1.000000000000000056e-01
3.326682513779436249e+03 1.778279410038922925e-01
3.525706392051367402e+03 3.162277660168379412e-01
3.748206896083123866e+03 5.623413251903490728e-01
3.998976083390992244e+03 1.000000000000000000e+00
4.288303527861529801e+03 1.778279410038922759e+00
4.617097391588191385e+03 3.162277660168379523e+00
5.031929319688752003e+03 5.623413251903491172e+00
5.591836087629297253e+03 1.000000000000000000e+01
6.415995640926446868e+03 1.778279410038922848e+01
7.673746517390181907e+03 3.162277660168379256e+01
9.385540873482344978e+03 5.623413251903490817e+01
1.145036654575190005e+04 1.000000000000000000e+02
1.394197479251750156e+04 1.778279410038922776e+02
1.691363559728046312e+04 3.162277660168379612e+02
