# Temperature (K), Pressure (bars)
1.493735763777451439e+03 9.999999999999999547e-07
1.529409142810646244e+03 1.778279410038922901e-06
1.565082521843845598e+03 3.162277660168379191e-06
1.607032941271266054e+03 5.623413251903491208e-06
1.653631354284755844e+03 1.000000000000000082e-05
1.702558540095702483e+03 1.778279410038922901e-05
1.751514234201973977e+03 3.162277660168379530e-05
1.800737429609223000e+03 5.623413251903490700e-05
1.850409705260547526e+03 1.000000000000000048e-04
1.899879824078567708e+03 1.778279410038922698e-04
1.950487667221864740e+03 3.162277660168379394e-04
2.003678485667497171e+03 5.623413251903490971e-04
2.060754710536592938e+03 1.000000000000000021e-03
2.123105710014053784e+03 1.778279410038922752e-03
2.194168638401601129e+03 3.162277660168379394e-03
2.284786985152555644e+03 5.623413251903490971e-03
2.399584007973887310e+03 1.000000000000000021e-02
2.527198237853458522e+03 1.778279410038922925e-02
2.661102747001541502e+03 3.162277660168379134e-02
2.803367264561205047e+03 5.623413251903491145e-02
2.955654484263732684e+03 1.000000000000000056e-01
3.119954356148109582e+03 1.778279410038922925e-01
3.298014631610451033e+03 3.162277660168379412e-01
3.490841940931906265e+03 5.623413251903490728e-01
3.699802409835921026e+03 1.000000000000000000e+00
3.928438265759469687e+03 1.778279410038922759e+00
4.183078641364028954e+03 3.162277660168379523e+00
4.472774725198312808e+03 5.623413251903491172e+00
4.807679226023446063e+03 1.000000000000000000e+01
5.210671030956607865e+03 1.778279410038922848e+01
5.711308323600695985e+03 3.162277660168379256e+01
6.358996998267672097e+03 5.623413251903490817e+01
7.242111515188738849e+03 1.000000000000000000e+02
8.506914329419538262e+03 1.778279410038922776e+02
1.023661374942100156e+04 3.162277660168379612e+02
