# Temperature (K), Pressure (bars)
9.725886330082690847e+02 3.162277660168379530e-05
1.023094579496789720e+03 5.623413251903490700e-05
1.073600527888740089e+03 1.000000000000000048e-04
1.123625254297746096e+03 1.778279410038922698e-04
1.172063738635436493e+03 3.162277660168379394e-04
1.221052609898755236e+03 5.623413251903490971e-04
1.274093473478703345e+03 1.000000000000000021e-03
1.338061618058411113e+03 1.778279410038922752e-03
1.416513957297966954e+03 3.162277660168379394e-03
1.504971425821166804e+03 5.623413251903490971e-03
1.599848568689266358e+03 1.000000000000000021e-02
1.696824434317084297e+03 1.778279410038922925e-02
1.788589385519445841e+03 3.162277660168379134e-02
1.885727564606067517e+03 5.623413251903491145e-02
1.997291368774486500e+03 1.000000000000000056e-01
2.146247585613069987e+03 1.778279410038922925e-01
2.356605537940285558e+03 3.162277660168379412e-01
2.582185451430246303e+03 5.623413251903490728e-01
2.791441114012733578e+03 1.000000000000000000e+00
2.998608638687662733e+03 1.778279410038922759e+00
3.209184505916200578e+03 3.162277660168379523e+00
3.427271440716589041e+03 5.623413251903491172e+00
3.657587133669068407e+03 1.000000000000000000e+01
3.905542979282459783e+03 1.778279410038922848e+01
4.178916955461229918e+03 3.162277660168379256e+01
4.483182301968719912e+03 5.623413251903490817e+01
4.825992384537554244e+03 1.000000000000000000e+02
5.211251799913065952e+03 1.778279410038922776e+02
5.662489053338405938e+03 3.162277660168379612e+02
