# Temperature (K), Pressure (bars)
2.210258108353971238e+03 9.999999999999999547e-07
2.224455890407522929e+03 1.778279410038922901e-06
2.238653672461947281e+03 3.162277660168379191e-06
2.252376022388282763e+03 5.623413251903491208e-06
2.266211924174058367e+03 1.000000000000000082e-05
2.280818575551125832e+03 1.778279410038922901e-05
2.296970673598310896e+03 3.162277660168379530e-05
2.315309443799334986e+03 5.623413251903490700e-05
2.335602520767838541e+03 1.000000000000000048e-04
2.357138372503256505e+03 1.778279410038922698e-04
2.379462222867824039e+03 3.162277660168379394e-04
2.403138019824780713e+03 5.623413251903490971e-04
2.429659956340110512e+03 1.000000000000000021e-03
2.460973825003489765e+03 1.778279410038922752e-03
2.498369776242098851e+03 3.162277660168379394e-03
2.544569775974631739e+03 5.623413251903490971e-03
2.600864316404752572e+03 1.000000000000000021e-02
2.674488670453661143e+03 1.778279410038922925e-02
2.777268543907304320e+03 3.162277660168379134e-02
2.902776293647802959e+03 5.623413251903491145e-02
3.041517178602694003e+03 1.000000000000000056e-01
3.195072320208931160e+03 1.778279410038922925e-01
3.366341298898540117e+03 3.162277660168379412e-01
3.558457993211260145e+03 5.623413251903490728e-01
3.774141935170110173e+03 1.000000000000000000e+00
4.016332464632142091e+03 1.778279410038922759e+00
4.290852513514050770e+03 3.162277660168379523e+00
4.608569180290159238e+03 5.623413251903491172e+00
4.979968279983879256e+03 1.000000000000000000e+01
5.441763698190246942e+03 1.778279410038922848e+01
6.043964827748951393e+03 3.162277660168379256e+01
6.879232748595877638e+03 5.623413251903490817e+01
8.099825794726953063e+03 1.000000000000000000e+02
9.800530628658232672e+03 1.778279410038922776e+02
1.188393369591543888e+04 3.162277660168379612e+02
