# Temperature (K), Pressure (bars)
8.552286712264500466e+02 1.000000000000000048e-04
9.086665562024666087e+02 1.778279410038922698e-04
9.621044422890100805e+02 3.162277660168379394e-04
1.014398538285465065e+03 5.623413251903490971e-04
1.066170563690806375e+03 1.000000000000000021e-03
1.119795563414970729e+03 1.778279410038922752e-03
1.177477674194899919e+03 3.162277660168379394e-03
1.242095362646790818e+03 5.623413251903490971e-03
1.317026779192590311e+03 1.000000000000000021e-02
1.409751959016523870e+03 1.778279410038922925e-02
1.537750677359768815e+03 3.162277660168379134e-02
1.729343344155890463e+03 5.623413251903491145e-02
1.978937709597242701e+03 1.000000000000000056e-01
2.232037121990856122e+03 1.778279410038922925e-01
2.461059922693128101e+03 3.162277660168379412e-01
2.673640966024987392e+03 5.623413251903490728e-01
2.876876283793652419e+03 1.000000000000000000e+00
3.077769853453655287e+03 1.778279410038922759e+00
3.282485921924379454e+03 3.162277660168379523e+00
3.496600144110240308e+03 5.623413251903491172e+00
3.725251247222400707e+03 1.000000000000000000e+01
3.973692238849872865e+03 1.778279410038922848e+01
4.250054063626850620e+03 3.162277660168379256e+01
4.559106905773781364e+03 5.623413251903490817e+01
4.908854973905937186e+03 1.000000000000000000e+02
5.303094615075018737e+03 1.778279410038922776e+02
5.767632047587941997e+03 3.162277660168379612e+02
