# Temperature (K), Pressure (bars)
1.196555153813998004e+03 1.778279410038922901e-05
1.235764657205217418e+03 3.162277660168379530e-05
1.274974164136398940e+03 5.623413251903490700e-05
1.321317479692835377e+03 1.000000000000000048e-04
1.367326105106692921e+03 1.778279410038922698e-04
1.419758641365395533e+03 3.162277660168379394e-04
1.495366954175726278e+03 5.623413251903490971e-04
1.571786256858458501e+03 1.000000000000000021e-03
1.630997390686665085e+03 1.778279410038922752e-03
1.684987615465229055e+03 3.162277660168379394e-03
1.739920377931398207e+03 5.623413251903490971e-03
1.795800553178944710e+03 1.000000000000000021e-02
1.855735045107344149e+03 1.778279410038922925e-02
1.920933417771633458e+03 3.162277660168379134e-02
1.997426519231792781e+03 5.623413251903491145e-02
2.086951274473060039e+03 1.000000000000000056e-01
2.205887420633814600e+03 1.778279410038922925e-01
2.383116229139466213e+03 3.162277660168379412e-01
2.591760599085054764e+03 5.623413251903490728e-01
2.797933671124977991e+03 1.000000000000000000e+00
3.004095709115229965e+03 1.778279410038922759e+00
3.214691631514229357e+03 3.162277660168379523e+00
3.433289794084517780e+03 5.623413251903491172e+00
3.664205624459061255e+03 1.000000000000000000e+01
3.912747538661189083e+03 1.778279410038922848e+01
4.186569979747773687e+03 3.162277660168379256e+01
4.491379749918616653e+03 5.623413251903490817e+01
4.834999995601773662e+03 1.000000000000000000e+02
5.221371281056738553e+03 1.778279410038922776e+02
5.674315431445575996e+03 3.162277660168379612e+02
