# Temperature (K), Pressure (bars)
7.216628540994456671e+02 9.999999999999999547e-07
7.429245591016397157e+02 1.778279410038922901e-06
7.641862641223520995e+02 3.162277660168379191e-06
7.881159434337473613e+02 5.623413251903491208e-06
8.160643720463485806e+02 1.000000000000000082e-05
8.470945935859562042e+02 1.778279410038922901e-05
8.811362254121264641e+02 3.162277660168379530e-05
9.185182094209978914e+02 5.623413251903490700e-05
9.587317941294750199e+02 1.000000000000000048e-04
1.002063870064048615e+03 1.778279410038922698e-04
1.048405847449399744e+03 3.162277660168379394e-04
1.097491443748570418e+03 5.623413251903490971e-04
1.150194597682305357e+03 1.000000000000000021e-03
1.208299910354453914e+03 1.778279410038922752e-03
1.273864838877147577e+03 3.162277660168379394e-03
1.351598431881712031e+03 5.623413251903490971e-03
1.447874027632710749e+03 1.000000000000000021e-02
1.588430683924729692e+03 1.778279410038922925e-02
1.796614850576657318e+03 3.162277660168379134e-02
2.039121744756086173e+03 5.623413251903491145e-02
2.271706121661023190e+03 1.000000000000000056e-01
2.484584857347757861e+03 1.778279410038922925e-01
2.682496952378949572e+03 3.162277660168379412e-01
2.872554623157895549e+03 5.623413251903490728e-01
3.060883973183990747e+03 1.000000000000000000e+00
3.253011180288978721e+03 1.778279410038922759e+00
3.454115078745995561e+03 3.162277660168379523e+00
3.668965439932988374e+03 5.623413251903491172e+00
3.902246979491204002e+03 1.000000000000000000e+01
4.159069752732008965e+03 1.778279410038922848e+01
4.445478513810730874e+03 3.162277660168379256e+01
4.769462112896750114e+03 5.623413251903490817e+01
5.146073103601662297e+03 1.000000000000000000e+02
5.583977284510235222e+03 1.778279410038922776e+02
6.101327340813360934e+03 3.162277660168379612e+02
