# Temperature (K), Pressure (bars)
1.349824211137639395e+03 9.999999999999999547e-07
1.386536349036808588e+03 1.778279410038922901e-06
1.423248486942080035e+03 3.162277660168379191e-06
1.472534223616327154e+03 5.623413251903491208e-06
1.528348845636416172e+03 1.000000000000000082e-05
1.580611337528388958e+03 1.778279410038922901e-05
1.632330118004428641e+03 3.162277660168379530e-05
1.687243114794145413e+03 5.623413251903490700e-05
1.745264605899209755e+03 1.000000000000000048e-04
1.807984130572309823e+03 1.778279410038922698e-04
1.874174554886414398e+03 3.162277660168379394e-04
1.944522132458107080e+03 5.623413251903490971e-04
2.020483233944171843e+03 1.000000000000000021e-03
2.108883500865415954e+03 1.778279410038922752e-03
2.220223432906861945e+03 3.162277660168379394e-03
2.347079337594970639e+03 5.623413251903490971e-03
2.479519176594116288e+03 1.000000000000000021e-02
2.618102731559777112e+03 1.778279410038922925e-02
2.764215008237153597e+03 3.162277660168379134e-02
2.919672800845077290e+03 5.623413251903491145e-02
3.086658476255385722e+03 1.000000000000000056e-01
3.267090412103794279e+03 1.778279410038922925e-01
3.462077216304090143e+03 3.162277660168379412e-01
3.673416252713334870e+03 5.623413251903490728e-01
3.905809707880422593e+03 1.000000000000000000e+00
4.167823839855603183e+03 1.778279410038922759e+00
4.472200615413670675e+03 3.162277660168379523e+00
4.830305597292030143e+03 5.623413251903491172e+00
5.283051458327253386e+03 1.000000000000000000e+01
5.891985071992955454e+03 1.778279410038922848e+01
6.777265693194512096e+03 3.162277660168379256e+01
8.102149445452641885e+03 5.623413251903490817e+01
9.882215151112350213e+03 1.000000000000000000e+02
1.203360161786520985e+04 1.778279410038922776e+02
1.459838830773368318e+04 3.162277660168379612e+02
