# Temperature (K), Pressure (bars)
9.266602640943684719e+02 1.000000000000000021e-03
9.587507206775881059e+02 1.778279410038922752e-03
9.908411773610979481e+02 3.162277660168379394e-03
1.017502500226544953e+03 5.623413251903490971e-03
1.038595861575069193e+03 1.000000000000000021e-02
1.058531640769528394e+03 1.778279410038922925e-02
1.082336243525744976e+03 3.162277660168379134e-02
1.112484478466592236e+03 5.623413251903491145e-02
1.149482956195992074e+03 1.000000000000000056e-01
1.194685443875827559e+03 1.778279410038922925e-01
1.250570887431725623e+03 3.162277660168379412e-01
1.321309626290665392e+03 5.623413251903490728e-01
1.412495339874368256e+03 1.000000000000000000e+00
1.532511641056530152e+03 1.778279410038922759e+00
1.686707051509709572e+03 3.162277660168379523e+00
1.898316011346785444e+03 5.623413251903491172e+00
2.182004685744217568e+03 1.000000000000000000e+01
2.494357651353829624e+03 1.778279410038922848e+01
2.808949554852531946e+03 3.162277660168379256e+01
3.125859970863675244e+03 5.623413251903490817e+01
3.447535349427346773e+03 1.000000000000000000e+02
3.778289025322172620e+03 1.778279410038922776e+02
4.131120557911465767e+03 3.162277660168379612e+02
