# Temperature (K), Pressure (bars)
8.423737442004287459e+02 9.999999999999999547e-07
8.603841963366909340e+02 1.778279410038922901e-06
8.783946484807461275e+02 3.162277660168379191e-06
9.014633082561442734e+02 5.623413251903491208e-06
9.288810569500351448e+02 1.000000000000000082e-05
9.590710840341610037e+02 1.778279410038922901e-05
9.927353716227529503e+02 3.162277660168379530e-05
1.030111295909205865e+03 5.623413251903490700e-05
1.071225923234067068e+03 1.000000000000000048e-04
1.116322568513593524e+03 1.778279410038922698e-04
1.165036074414226732e+03 3.162277660168379394e-04
1.217451831501530023e+03 5.623413251903490971e-04
1.273384237430605026e+03 1.000000000000000021e-03
1.334503660372146669e+03 1.778279410038922752e-03
1.402533821589482159e+03 3.162277660168379394e-03
1.483497867668268100e+03 5.623413251903490971e-03
1.580981806031070391e+03 1.000000000000000021e-02
1.723018491384963454e+03 1.778279410038922925e-02
1.936276254132085342e+03 3.162277660168379134e-02
2.170907267421516735e+03 5.623413251903491145e-02
2.383570481145755821e+03 1.000000000000000056e-01
2.580238054030511194e+03 1.778279410038922925e-01
2.768147295294572359e+03 3.162277660168379412e-01
2.953386368563634733e+03 5.623413251903490728e-01
3.140413331038919750e+03 1.000000000000000000e+00
3.333319221274825395e+03 1.778279410038922759e+00
3.536579980000426531e+03 3.162277660168379523e+00
3.754873600463892217e+03 5.623413251903491172e+00
3.993022573703174658e+03 1.000000000000000000e+01
4.256483813442864630e+03 1.778279410038922848e+01
4.551850434560673420e+03 3.162277660168379256e+01
4.887867965981829911e+03 5.623413251903490817e+01
5.280444835283396060e+03 1.000000000000000000e+02
5.740480235304328744e+03 1.778279410038922776e+02
6.288729665733070760e+03 3.162277660168379612e+02
