# Temperature (K), Pressure (bars)
1.826724787398479521e+03 1.778279410038922901e-06
1.839265991907849639e+03 3.162277660168379191e-06
1.852090950020906348e+03 5.623413251903491208e-06
1.867784739030087849e+03 1.000000000000000082e-05
1.888627806796892401e+03 1.778279410038922901e-05
1.916655181880827513e+03 3.162277660168379530e-05
1.951183842575901735e+03 5.623413251903490700e-05
1.991957519196939074e+03 1.000000000000000048e-04
2.039421621665257362e+03 1.778279410038922698e-04
2.092011187025718755e+03 3.162277660168379394e-04
2.148893692797018048e+03 5.623413251903490971e-04
2.210320995392588884e+03 1.000000000000000021e-03
2.278947783880279985e+03 1.778279410038922752e-03
2.362549698106108735e+03 3.162277660168379394e-03
2.463811119981412958e+03 5.623413251903490971e-03
2.576443042838665406e+03 1.000000000000000021e-02
2.697220702820893166e+03 1.778279410038922925e-02
2.827381591383184514e+03 3.162277660168379134e-02
2.968311349561739007e+03 5.623413251903491145e-02
3.122053142364589348e+03 1.000000000000000056e-01
3.291493502900581916e+03 1.778279410038922925e-01
3.480144282477246634e+03 3.162277660168379412e-01
3.691528027819257659e+03 5.623413251903490728e-01
3.929581044206757724e+03 1.000000000000000000e+00
4.201316915846069605e+03 1.778279410038922759e+00
4.520042479386160267e+03 3.162277660168379523e+00
4.894381740236952282e+03 5.623413251903491172e+00
5.376567821461208950e+03 1.000000000000000000e+01
6.042367988716948275e+03 1.778279410038922848e+01
7.030980924912086266e+03 3.162277660168379256e+01
8.491075054045446450e+03 5.623413251903490817e+01
1.036798761129598097e+04 1.000000000000000000e+02
1.262326896187076818e+04 1.778279410038922776e+02
1.531351589813428109e+04 3.162277660168379612e+02
