# Temperature (K), Pressure (bars)
8.520190853302676715e+02 3.162277660168379394e-04
9.039497442845016622e+02 5.623413251903490971e-04
9.558804042733889901e+02 1.000000000000000021e-03
1.006692129108579934e+03 1.778279410038922752e-03
1.057256506892967309e+03 3.162277660168379394e-03
1.110834337377203610e+03 5.623413251903490971e-03
1.170429985638603739e+03 1.000000000000000021e-02
1.242263045595823087e+03 1.778279410038922925e-02
1.329349638592515021e+03 3.162277660168379134e-02
1.456592400728603025e+03 5.623413251903491145e-02
1.660035850477145004e+03 1.000000000000000056e-01
1.914382133531434874e+03 1.778279410038922925e-01
2.174295256034216891e+03 3.162277660168379412e-01
2.422708859851877605e+03 5.623413251903490728e-01
2.654833260972838161e+03 1.000000000000000000e+00
2.875250759028099765e+03 1.778279410038922759e+00
3.091532167095312616e+03 3.162277660168379523e+00
3.311016820242551148e+03 5.623413251903491172e+00
3.540096746015036388e+03 1.000000000000000000e+01
3.784628085682584242e+03 1.778279410038922848e+01
4.052791437743189363e+03 3.162277660168379256e+01
4.348870631967553891e+03 5.623413251903490817e+01
4.679919254172565161e+03 1.000000000000000000e+02
5.049471675793083705e+03 1.778279410038922776e+02
5.478595733579502848e+03 3.162277660168379612e+02
