# Temperature (K), Pressure (bars)
1.019475109959882730e+03 5.623413251903491208e-06
1.073313203854839458e+03 1.000000000000000082e-05
1.127232759058443207e+03 1.778279410038922901e-05
1.185831288459415191e+03 3.162277660168379530e-05
1.248385927584399951e+03 5.623413251903490700e-05
1.310623037805574995e+03 1.000000000000000048e-04
1.375693759686354497e+03 1.778279410038922698e-04
1.444870486466077637e+03 3.162277660168379394e-04
1.521242501966073178e+03 5.623413251903490971e-04
1.613544335001706258e+03 1.000000000000000021e-03
1.703858314876402574e+03 1.778279410038922752e-03
1.778769824559611607e+03 3.162277660168379394e-03
1.850654720255809025e+03 5.623413251903490971e-03
1.930945489987286692e+03 1.000000000000000021e-02
2.020234927868223167e+03 1.778279410038922925e-02
2.136282593294463368e+03 3.162277660168379134e-02
2.300438486585954706e+03 5.623413251903491145e-02
2.480999679345807181e+03 1.000000000000000056e-01
2.653742411479532166e+03 1.778279410038922925e-01
2.827643138113106943e+03 3.162277660168379412e-01
3.006559437532501306e+03 5.623413251903490728e-01
3.192714800021451993e+03 1.000000000000000000e+00
3.387794204313167938e+03 1.778279410038922759e+00
3.594562368379283726e+03 3.162277660168379523e+00
3.817243171245651865e+03 5.623413251903491172e+00
4.060903453514810280e+03 1.000000000000000000e+01
4.331375860093077790e+03 1.778279410038922848e+01
4.635838084181130398e+03 3.162277660168379256e+01
4.983951393044804718e+03 5.623413251903490817e+01
5.392866323016054594e+03 1.000000000000000000e+02
5.875839429117238069e+03 1.778279410038922776e+02
6.457490997340211834e+03 3.162277660168379612e+02
