# Temperature (K), Pressure (bars)
2.313868626472563847e+03 9.999999999999999547e-07
2.333658957236385504e+03 1.778279410038922901e-06
2.353449288000205797e+03 3.162277660168379191e-06
2.385611154278198683e+03 5.623413251903491208e-06
2.418560684174373819e+03 1.000000000000000082e-05
2.450176283321245137e+03 1.778279410038922901e-05
2.485259724103557346e+03 3.162277660168379530e-05
2.521576873859141415e+03 5.623413251903490700e-05
2.558051170863186599e+03 1.000000000000000048e-04
2.593174633381348940e+03 1.778279410038922698e-04
2.622100128046708051e+03 3.162277660168379394e-04
2.641166560713239505e+03 5.623413251903490971e-04
2.657973735733415197e+03 1.000000000000000021e-03
2.688070707452146507e+03 1.778279410038922752e-03
2.738526855559116939e+03 3.162277660168379394e-03
2.802040480239971203e+03 5.623413251903490971e-03
2.865406963753447599e+03 1.000000000000000021e-02
2.922199162217471894e+03 1.778279410038922925e-02
3.002576870536430306e+03 3.162277660168379134e-02
3.136924578563823616e+03 5.623413251903491145e-02
3.303665717489165672e+03 1.000000000000000056e-01
3.493371070048441652e+03 1.778279410038922925e-01
3.699536204140549671e+03 3.162277660168379412e-01
3.942009279797353884e+03 5.623413251903490728e-01
4.232757767354528369e+03 1.000000000000000000e+00
4.577717631307160445e+03 1.778279410038922759e+00
5.040427914423524271e+03 3.162277660168379523e+00
5.731064027895684376e+03 5.623413251903491172e+00
6.832552792945747569e+03 1.000000000000000000e+01
8.392186443358894394e+03 1.778279410038922848e+01
1.000000000000000000e+04 3.162277660168379256e+01
1.000000000000000000e+04 5.623413251903490817e+01
1.000000000000000000e+04 1.000000000000000000e+02
1.000000000000000000e+04 1.778279410038922776e+02
1.000000000000000000e+04 3.162277660168379612e+02
