# Temperature (K), Pressure (bars)
1.831389992966047885e+03 3.162277660168379191e-06
1.844395952609184178e+03 5.623413251903491208e-06
1.857858958238692139e+03 1.000000000000000082e-05
1.874195346766790408e+03 1.778279410038922901e-05
1.896243738694790409e+03 3.162277660168379530e-05
1.925151623645277596e+03 5.623413251903490700e-05
1.960404625711119024e+03 1.000000000000000048e-04
2.002650708372630334e+03 1.778279410038922698e-04
2.051656300976754210e+03 3.162277660168379394e-04
2.105657021504127897e+03 5.623413251903490971e-04
2.163815345995241387e+03 1.000000000000000021e-03
2.226537512543721277e+03 1.778279410038922752e-03
2.295792968719759301e+03 3.162277660168379394e-03
2.380569278425334232e+03 5.623413251903490971e-03
2.486609217471440388e+03 1.000000000000000021e-02
2.605021825639610142e+03 1.778279410038922925e-02
2.730438172337172546e+03 3.162277660168379134e-02
2.865276945240675104e+03 5.623413251903491145e-02
3.011010483235240827e+03 1.000000000000000056e-01
3.169547990780870805e+03 1.778279410038922925e-01
3.343335729980818996e+03 3.162277660168379412e-01
3.535123727916433381e+03 5.623413251903490728e-01
3.747646817029500198e+03 1.000000000000000000e+00
3.984195782446998237e+03 1.778279410038922759e+00
4.250540613078745082e+03 3.162277660168379523e+00
4.556572015494986772e+03 5.623413251903491172e+00
4.912212637037146123e+03 1.000000000000000000e+01
5.348596004653508317e+03 1.778279410038922848e+01
5.906671070545728071e+03 3.162277660168379256e+01
6.659295248628074660e+03 5.623413251903490817e+01
7.731517004414087751e+03 1.000000000000000000e+02
9.268134835034237767e+03 1.778279410038922776e+02
1.121513576761483819e+04 3.162277660168379612e+02
