# Temperature (K), Pressure (bars)
8.916817128167618876e+02 5.623413251903490971e-04
9.292145705445506110e+02 1.000000000000000021e-03
9.667474286058484267e+02 1.778279410038922752e-03
1.005206757030226868e+03 3.162277660168379394e-03
1.045706480018136745e+03 5.623413251903490971e-03
1.088022604572556702e+03 1.000000000000000021e-02
1.131748009940322163e+03 1.778279410038922925e-02
1.178302609960089285e+03 3.162277660168379134e-02
1.229050652386896445e+03 5.623413251903491145e-02
1.289403032379205115e+03 1.000000000000000056e-01
1.361208580015292000e+03 1.778279410038922925e-01
1.483996453085466555e+03 3.162277660168379412e-01
1.702379735402595770e+03 5.623413251903490728e-01
1.972326463366308417e+03 1.000000000000000000e+00
2.248135121048190740e+03 1.778279410038922759e+00
2.523275771558220640e+03 3.162277660168379523e+00
2.790432223133067964e+03 5.623413251903491172e+00
3.051163521371351180e+03 1.000000000000000000e+01
3.311703474452053342e+03 1.778279410038922848e+01
3.581487395725504484e+03 3.162277660168379256e+01
3.867018595728587115e+03 5.623413251903490817e+01
4.175486202641591262e+03 1.000000000000000000e+02
4.510574085014161938e+03 1.778279410038922776e+02
4.888365042147192980e+03 3.162277660168379612e+02
