# Temperature (K), Pressure (bars)
2.080428826282658974e+03 9.999999999999999547e-07
2.129406729786297547e+03 1.778279410038922901e-06
2.178384633289936119e+03 3.162277660168379191e-06
2.226942935362128082e+03 5.623413251903491208e-06
2.275848445343697222e+03 1.000000000000000082e-05
2.325117563002623683e+03 1.778279410038922901e-05
2.372882234068495563e+03 3.162277660168379530e-05
2.417951800872154763e+03 5.623413251903490700e-05
2.460330824308291085e+03 1.000000000000000048e-04
2.499950052232043618e+03 1.778279410038922698e-04
2.537894078146081483e+03 3.162277660168379394e-04
2.577280536445250618e+03 5.623413251903490971e-04
2.621753118463183455e+03 1.000000000000000021e-03
2.675165627607118040e+03 1.778279410038922752e-03
2.737740583916984633e+03 3.162277660168379394e-03
2.808934398747701835e+03 5.623413251903490971e-03
2.877316683421467133e+03 1.000000000000000021e-02
2.955306951819044116e+03 1.778279410038922925e-02
3.083402604507397427e+03 3.162277660168379134e-02
3.259385787190964493e+03 5.623413251903491145e-02
3.440718162442014545e+03 1.000000000000000056e-01
3.654994953024238839e+03 1.778279410038922925e-01
3.912741453257649482e+03 3.162277660168379412e-01
4.211416440905177296e+03 5.623413251903490728e-01
4.612356451007869509e+03 1.000000000000000000e+00
5.216747369354630791e+03 1.778279410038922759e+00
6.195345013948971427e+03 3.162277660168379523e+00
7.637534259611621565e+03 5.623413251903491172e+00
9.342741903111509600e+03 1.000000000000000000e+01
1.000000000000000000e+04 1.778279410038922848e+01
1.000000000000000000e+04 3.162277660168379256e+01
1.000000000000000000e+04 5.623413251903490817e+01
1.000000000000000000e+04 1.000000000000000000e+02
1.000000000000000000e+04 1.778279410038922776e+02
1.000000000000000000e+04 3.162277660168379612e+02
