# Temperature (K), Pressure (bars)
2.279044040227912319e+03 9.999999999999999547e-07
2.300786611411966533e+03 1.778279410038922901e-06
2.322529182596020291e+03 3.162277660168379191e-06
2.345516635362706893e+03 5.623413251903491208e-06
2.369761678290801228e+03 1.000000000000000082e-05
2.394415365684432800e+03 1.778279410038922901e-05
2.417650864696829103e+03 3.162277660168379530e-05
2.436103212212548442e+03 5.623413251903490700e-05
2.447592833921841702e+03 1.000000000000000048e-04
2.455848474504939077e+03 1.778279410038922698e-04
2.469833627913810687e+03 3.162277660168379394e-04
2.496348310204813970e+03 5.623413251903490971e-04
2.536682245377387972e+03 1.000000000000000021e-03
2.589461244981675009e+03 1.778279410038922752e-03
2.655089683289298137e+03 3.162277660168379394e-03
2.733483604737939913e+03 5.623413251903490971e-03
2.828667821518078199e+03 1.000000000000000021e-02
2.946766088162772576e+03 1.778279410038922925e-02
3.082523867561690167e+03 3.162277660168379134e-02
3.234412879778487422e+03 5.623413251903491145e-02
3.411406763002170010e+03 1.000000000000000056e-01
3.608342164151394172e+03 1.778279410038922925e-01
3.844036701758200252e+03 3.162277660168379412e-01
4.112389681463028865e+03 5.623413251903490728e-01
4.453689320311566007e+03 1.000000000000000000e+00
4.928439303712515539e+03 1.778279410038922759e+00
5.666900359586373270e+03 3.162277660168379523e+00
6.840847100753913764e+03 5.623413251903491172e+00
8.437114924679890464e+03 1.000000000000000000e+01
1.000000000000000000e+04 1.778279410038922848e+01
1.000000000000000000e+04 3.162277660168379256e+01
1.000000000000000000e+04 5.623413251903490817e+01
1.000000000000000000e+04 1.000000000000000000e+02
1.000000000000000000e+04 1.778279410038922776e+02
1.000000000000000000e+04 3.162277660168379612e+02
