# Temperature (K), Pressure (bars)
8.992141351231969111e+02 1.000000000000000021e-03
9.352442298043087021e+02 1.778279410038922752e-03
9.712743248476456301e+02 3.162277660168379394e-03
1.007944220684693846e+03 5.623413251903490971e-03
1.045724484866646890e+03 1.000000000000000021e-02
1.084553384592434213e+03 1.778279410038922925e-02
1.125161648302174626e+03 3.162277660168379134e-02
1.169461462716308688e+03 5.623413251903491145e-02
1.221633836741943924e+03 1.000000000000000056e-01
1.284377871224513456e+03 1.778279410038922925e-01
1.362455641804656580e+03 3.162277660168379412e-01
1.478977589493116511e+03 5.623413251903490728e-01
1.656498432602849789e+03 1.000000000000000000e+00
1.896664484619266204e+03 1.778279410038922759e+00
2.179824180659096328e+03 3.162277660168379523e+00
2.472262103607042718e+03 5.623413251903491172e+00
2.758082961260879074e+03 1.000000000000000000e+01
3.039563080772672492e+03 1.778279410038922848e+01
3.323028724983935263e+03 3.162277660168379256e+01
3.614456447607191876e+03 5.623413251903490817e+01
3.921823206382960052e+03 1.000000000000000000e+02
4.249661474422568062e+03 1.778279410038922776e+02
4.612967182003587368e+03 3.162277660168379612e+02
