# Temperature (K), Pressure (bars)
1.019644683282428900e+03 3.162277660168379530e-05
1.074591757507362217e+03 5.623413251903490700e-05
1.129538836060696894e+03 1.000000000000000048e-04
1.188781115878045739e+03 1.778279410038922698e-04
1.251820832853508819e+03 3.162277660168379394e-04
1.313526264978388554e+03 5.623413251903490971e-04
1.378262959658700538e+03 1.000000000000000021e-03
1.451075521592503719e+03 1.778279410038922752e-03
1.528338118485308996e+03 3.162277660168379394e-03
1.615337784259827686e+03 5.623413251903490971e-03
1.707311419442650504e+03 1.000000000000000021e-02
1.788632250919312582e+03 1.778279410038922925e-02
1.862741802882876073e+03 3.162277660168379134e-02
1.945458615427013910e+03 5.623413251903491145e-02
2.042819174430185512e+03 1.000000000000000056e-01
2.170455211257534302e+03 1.778279410038922925e-01
2.351604474764158567e+03 3.162277660168379412e-01
2.562861731686389248e+03 5.623413251903490728e-01
2.772038294340406992e+03 1.000000000000000000e+00
2.979236017876691221e+03 1.778279410038922759e+00
3.190228155865732788e+03 3.162277660168379523e+00
3.409051570947820437e+03 5.623413251903491172e+00
3.639892845991809736e+03 1.000000000000000000e+01
3.887854214237990163e+03 1.778279410038922848e+01
4.160491473310786205e+03 3.162277660168379256e+01
4.463513239802949101e+03 5.623413251903490817e+01
4.804508479980748234e+03 1.000000000000000000e+02
5.187354060718929759e+03 1.778279410038922776e+02
5.635135283450532370e+03 3.162277660168379612e+02
