# Temperature (K), Pressure (bars)
7.614116441940876712e+02 3.162277660168379394e-04
8.039206965010322392e+02 5.623413251903490971e-04
8.464297496593516144e+02 1.000000000000000021e-03
8.883932690930149647e+02 1.778279410038922752e-03
9.304292540483652374e+02 3.162277660168379394e-03
9.739496292993935640e+02 5.623413251903490971e-03
1.021210414999799127e+03 1.000000000000000021e-02
1.075856874229649065e+03 1.778279410038922925e-02
1.142327336864834251e+03 3.162277660168379134e-02
1.227798164441262088e+03 5.623413251903491145e-02
1.341138709020709712e+03 1.000000000000000056e-01
1.509054781900602393e+03 1.778279410038922925e-01
1.746325852518178863e+03 3.162277660168379412e-01
2.015331373158400538e+03 5.623413251903490728e-01
2.284126812928373965e+03 1.000000000000000000e+00
2.544975107001335800e+03 1.778279410038922759e+00
2.793524012901929837e+03 3.162277660168379523e+00
3.034374865649794629e+03 5.623413251903491172e+00
3.275165964929964503e+03 1.000000000000000000e+01
3.523564909635631921e+03 1.778279410038922848e+01
3.788669782738247250e+03 3.162277660168379256e+01
4.075289053837873325e+03 5.623413251903490817e+01
4.390107434675614968e+03 1.000000000000000000e+02
4.736362198703971444e+03 1.778279410038922776e+02
5.132090711725599249e+03 3.162277660168379612e+02
