# Temperature (K), Pressure (bars)
9.472211922532073913e+02 1.000000000000000048e-04
1.004576928787051884e+03 1.778279410038922698e-04
1.061932665643888186e+03 3.162277660168379394e-04
1.113174982646542276e+03 5.623413251903490971e-04
1.155226548816059221e+03 1.000000000000000021e-03
1.190765409042564897e+03 1.778279410038922752e-03
1.224175419913621454e+03 3.162277660168379394e-03
1.257451384842770267e+03 5.623413251903490971e-03
1.292438105195996968e+03 1.000000000000000021e-02
1.328877854327215573e+03 1.778279410038922925e-02
1.367138466831719370e+03 3.162277660168379134e-02
1.406967853877431253e+03 5.623413251903491145e-02
1.455104733439718075e+03 1.000000000000000056e-01
1.543594750678160835e+03 1.778279410038922925e-01
1.686427428787151939e+03 3.162277660168379412e-01
1.886501458744062120e+03 5.623413251903490728e-01
2.146535640526750285e+03 1.000000000000000000e+00
2.422761924494687264e+03 1.778279410038922759e+00
2.684285521424137187e+03 3.162277660168379523e+00
2.936658297389915788e+03 5.623413251903491172e+00
3.185491596396216664e+03 1.000000000000000000e+01
3.438437739211552525e+03 1.778279410038922848e+01
3.704850865203835838e+03 3.162277660168379256e+01
3.990520557452359753e+03 5.623413251903490817e+01
4.302252535209619964e+03 1.000000000000000000e+02
4.643306878033541579e+03 1.778279410038922776e+02
5.031010726994771176e+03 3.162277660168379612e+02
