# Temperature (K), Pressure (bars)
1.618461832061379482e+03 9.999999999999999547e-07
1.644521060832018520e+03 1.778279410038922901e-06
1.670580289602657786e+03 3.162277660168379191e-06
1.703634861848688161e+03 5.623413251903491208e-06
1.743926240836401803e+03 1.000000000000000082e-05
1.790756532068278375e+03 1.778279410038922901e-05
1.844202678647460516e+03 3.162277660168379530e-05
1.902777977831360658e+03 5.623413251903490700e-05
1.965241204189489736e+03 1.000000000000000048e-04
2.032256873980918954e+03 1.778279410038922698e-04
2.104111485246537541e+03 3.162277660168379394e-04
2.183837676631576414e+03 5.623413251903490971e-04
2.277401340110838191e+03 1.000000000000000021e-03
2.384100600279448372e+03 1.778279410038922752e-03
2.499314298960839096e+03 3.162277660168379394e-03
2.621776477933371098e+03 5.623413251903490971e-03
2.752347464563601534e+03 1.000000000000000021e-02
2.892840745502937807e+03 1.778279410038922925e-02
3.046383724190814519e+03 3.162277660168379134e-02
3.218085808469120366e+03 5.623413251903491145e-02
3.418350253523915853e+03 1.000000000000000056e-01
3.624511123383234462e+03 1.778279410038922925e-01
3.868568960505608629e+03 3.162277660168379412e-01
4.144358210247823081e+03 5.623413251903490728e-01
4.500485974293051186e+03 1.000000000000000000e+00
5.009451170913170245e+03 1.778279410038922759e+00
5.823662844964025680e+03 3.162277660168379523e+00
7.098132175902032941e+03 5.623413251903491172e+00
8.746584297116858579e+03 1.000000000000000000e+01
1.000000000000000000e+04 1.778279410038922848e+01
1.000000000000000000e+04 3.162277660168379256e+01
1.000000000000000000e+04 5.623413251903490817e+01
1.000000000000000000e+04 1.000000000000000000e+02
1.000000000000000000e+04 1.778279410038922776e+02
1.000000000000000000e+04 3.162277660168379612e+02
