# Temperature (K), Pressure (bars)
1.952385018392165193e+03 9.999999999999999547e-07
1.954796310622401506e+03 1.778279410038922901e-06
1.957207602852637820e+03 3.162277660168379191e-06
1.967973014894680773e+03 5.623413251903491208e-06
1.985913429836713021e+03 1.000000000000000082e-05
2.010894376090365540e+03 1.778279410038922901e-05
2.041881217109769977e+03 3.162277660168379530e-05
2.076254022594788239e+03 5.623413251903490700e-05
2.113686871619348040e+03 1.000000000000000048e-04
2.154688255325516366e+03 1.778279410038922698e-04
2.199832400329356460e+03 3.162277660168379394e-04
2.250298427552659177e+03 5.623413251903490971e-04
2.307698965917132682e+03 1.000000000000000021e-03
2.373478702781247648e+03 1.778279410038922752e-03
2.448123864134320684e+03 3.162277660168379394e-03
2.534659505348591210e+03 5.623413251903490971e-03
2.636941934422186932e+03 1.000000000000000021e-02
2.752369508770436823e+03 1.778279410038922925e-02
2.879238903455406671e+03 3.162277660168379134e-02
3.020253333028381348e+03 5.623413251903491145e-02
3.178360647832105315e+03 1.000000000000000056e-01
3.357092867414790362e+03 1.778279410038922925e-01
3.559767178117941057e+03 3.162277660168379412e-01
3.789408567988671166e+03 5.623413251903490728e-01
4.051950436619424636e+03 1.000000000000000000e+00
4.360471958865626220e+03 1.778279410038922759e+00
4.715388022326401369e+03 3.162277660168379523e+00
5.178685174898753758e+03 5.623413251903491172e+00
5.837241560512773503e+03 1.000000000000000000e+01
6.854382080802040946e+03 1.778279410038922848e+01
8.348010411214896521e+03 3.162277660168379256e+01
1.020754024269581168e+04 5.623413251903490817e+01
1.242164307407669548e+04 1.000000000000000000e+02
1.512377037554275194e+04 1.778279410038922776e+02
1.834797376338462709e+04 3.162277660168379612e+02
