# Temperature (K), Pressure (bars)
1.039834290940171286e+03 5.623413251903490971e-04
1.080040152602852004e+03 1.000000000000000021e-03
1.120246015385462897e+03 1.778279410038922752e-03
1.158412830885705034e+03 3.162277660168379394e-03
1.194161358222994977e+03 5.623413251903490971e-03
1.225220787093794115e+03 1.000000000000000021e-02
1.251063419974863564e+03 1.778279410038922925e-02
1.275699298235102106e+03 3.162277660168379134e-02
1.303591412571355249e+03 5.623413251903491145e-02
1.336217497662117466e+03 1.000000000000000056e-01
1.377902003948925312e+03 1.778279410038922925e-01
1.439203663058909115e+03 3.162277660168379412e-01
1.521096472717623328e+03 5.623413251903490728e-01
1.627002297105756270e+03 1.000000000000000000e+00
1.758288351886870487e+03 1.778279410038922759e+00
1.935330950200873986e+03 3.162277660168379523e+00
2.191005056276861069e+03 5.623413251903491172e+00
2.489164958928324722e+03 1.000000000000000000e+01
2.787526596949247960e+03 1.778279410038922848e+01
3.087711499245205232e+03 3.162277660168379256e+01
3.390130919040298522e+03 5.623413251903490817e+01
3.702158191711590007e+03 1.000000000000000000e+02
4.029354253836687803e+03 1.778279410038922776e+02
4.385587797186993157e+03 3.162277660168379612e+02
