# Temperature (K), Pressure (bars)
2.267789384664703448e+03 9.999999999999999547e-07
2.278672267556356019e+03 1.778279410038922901e-06
2.289555150448008135e+03 3.162277660168379191e-06
2.309967032061755162e+03 5.623413251903491208e-06
2.338297104694192967e+03 1.000000000000000082e-05
2.368142579773185844e+03 1.778279410038922901e-05
2.399192075108816425e+03 3.162277660168379530e-05
2.432293053650620095e+03 5.623413251903490700e-05
2.467348669415089716e+03 1.000000000000000048e-04
2.503809969779777020e+03 1.778279410038922698e-04
2.540060224679014027e+03 3.162277660168379394e-04
2.574860105392017886e+03 5.623413251903490971e-04
2.606688577211806660e+03 1.000000000000000021e-03
2.634822566630620713e+03 1.778279410038922752e-03
2.660800644642701627e+03 3.162277660168379394e-03
2.689183350760645681e+03 5.623413251903490971e-03
2.722415598289231184e+03 1.000000000000000021e-02
2.765588171622839582e+03 1.778279410038922925e-02
2.813904720443362748e+03 3.162277660168379134e-02
2.883706687475620129e+03 5.623413251903491145e-02
3.008912865268573114e+03 1.000000000000000056e-01
3.164516419951142780e+03 1.778279410038922925e-01
3.328235413043435074e+03 3.162277660168379412e-01
3.512127790600802655e+03 5.623413251903490728e-01
3.719966200297813884e+03 1.000000000000000000e+00
3.954221536448446841e+03 1.778279410038922759e+00
4.218649992010621645e+03 3.162277660168379523e+00
4.521174116492455141e+03 5.623413251903491172e+00
4.868156989494422305e+03 1.000000000000000000e+01
5.290653994085206250e+03 1.778279410038922848e+01
5.825803001685269919e+03 3.162277660168379256e+01
6.541805089337539357e+03 5.623413251903490817e+01
7.556488748056353870e+03 1.000000000000000000e+02
9.010609840493903903e+03 1.778279410038922776e+02
1.089019466526400720e+04 3.162277660168379612e+02
