# Temperature (K), Pressure (bars)
2.195384060622089692e+03 9.999999999999999547e-07
2.209129639644534109e+03 1.778279410038922901e-06
2.222875218667314130e+03 3.162277660168379191e-06
2.241697475422844036e+03 5.623413251903491208e-06
2.262681560931498552e+03 1.000000000000000082e-05
2.282694362841718430e+03 1.778279410038922901e-05
2.300956175023875403e+03 3.162277660168379530e-05
2.317539214867366354e+03 5.623413251903490700e-05
2.333893855855403672e+03 1.000000000000000048e-04
2.351828214559393473e+03 1.778279410038922698e-04
2.372149979399812764e+03 3.162277660168379394e-04
2.394288985345079709e+03 5.623413251903490971e-04
2.417088009689853607e+03 1.000000000000000021e-03
2.440462912375051019e+03 1.778279410038922752e-03
2.465271987357144098e+03 3.162277660168379394e-03
2.493374770270178942e+03 5.623413251903490971e-03
2.525320464037185502e+03 1.000000000000000021e-02
2.566181956915492265e+03 1.778279410038922925e-02
2.614004764610625443e+03 3.162277660168379134e-02
2.686269736436058338e+03 5.623413251903491145e-02
2.811992838502148061e+03 1.000000000000000056e-01
2.963561378323286590e+03 1.778279410038922925e-01
3.118811216053150929e+03 3.162277660168379412e-01
3.288737856782063773e+03 5.623413251903490728e-01
3.476351782102583002e+03 1.000000000000000000e+00
3.683119883308306726e+03 1.778279410038922759e+00
3.910521714036204230e+03 3.162277660168379523e+00
4.162061043778917337e+03 5.623413251903491172e+00
4.444129298315667256e+03 1.000000000000000000e+01
4.766168949095294010e+03 1.778279410038922848e+01
5.142258787643291726e+03 3.162277660168379256e+01
5.591685163464750985e+03 5.623413251903490817e+01
6.143706672070638888e+03 1.000000000000000000e+02
6.845192464764053511e+03 1.778279410038922776e+02
7.771647780310973758e+03 3.162277660168379612e+02
