# Temperature (K), Pressure (bars)
1.146908596468692394e+03 3.162277660168379191e-06
1.174332233450193826e+03 5.623413251903491208e-06
1.208569295311535825e+03 1.000000000000000082e-05
1.248809311532498214e+03 1.778279410038922901e-05
1.294112248111081499e+03 3.162277660168379530e-05
1.343777857323583476e+03 5.623413251903490700e-05
1.397716860491452053e+03 1.000000000000000048e-04
1.456833765859020332e+03 1.778279410038922698e-04
1.521581422107885373e+03 3.162277660168379394e-04
1.594123458652351928e+03 5.623413251903490971e-04
1.677776315231266153e+03 1.000000000000000021e-03
1.777794577685677268e+03 1.778279410038922752e-03
1.911765524589295183e+03 3.162277660168379394e-03
2.080425041543864609e+03 5.623413251903490971e-03
2.253788362583493836e+03 1.000000000000000021e-02
2.418084881428245808e+03 1.778279410038922925e-02
2.579203359758036640e+03 3.162277660168379134e-02
2.741009436497081424e+03 5.623413251903491145e-02
2.906341906150437353e+03 1.000000000000000056e-01
3.077544589870253731e+03 1.778279410038922925e-01
3.256579478732125153e+03 3.162277660168379412e-01
3.445326517752727796e+03 5.623413251903490728e-01
3.646673127078858215e+03 1.000000000000000000e+00
3.865229758996028067e+03 1.778279410038922759e+00
4.107089194126874645e+03 3.162277660168379523e+00
4.379905949948662055e+03 5.623413251903491172e+00
4.694009913082283674e+03 1.000000000000000000e+01
5.064893426692856337e+03 1.778279410038922848e+01
5.515203961426233036e+03 3.162277660168379256e+01
6.080648370099322165e+03 5.623413251903490817e+01
6.818936191112805318e+03 1.000000000000000000e+02
7.824650144884399197e+03 1.778279410038922776e+02
9.245247069137034487e+03 3.162277660168379612e+02
