# Temperature (K), Pressure (bars)
8.332610423778143058e+02 1.000000000000000021e-03
8.714384661842498190e+02 1.778279410038922752e-03
9.096158913232105760e+02 3.162277660168379394e-03
9.467165787373481862e+02 5.623413251903490971e-03
9.839221331743257224e+02 1.000000000000000021e-02
1.022270043280920049e+03 1.778279410038922925e-02
1.061712456772189398e+03 3.162277660168379134e-02
1.103244736826034114e+03 5.623413251903491145e-02
1.149331083428576221e+03 1.000000000000000056e-01
1.203674394360835777e+03 1.778279410038922925e-01
1.270759943693911282e+03 3.162277660168379412e-01
1.356347913269590663e+03 5.623413251903490728e-01
1.477980490580967853e+03 1.000000000000000000e+00
1.658732049491865837e+03 1.778279410038922759e+00
1.902148893054034033e+03 3.162277660168379523e+00
2.189606169381831478e+03 5.623413251903491172e+00
2.493203213083651008e+03 1.000000000000000000e+01
2.794272294197651263e+03 1.778279410038922848e+01
3.094172303932578870e+03 3.162277660168379256e+01
3.396360093260129815e+03 5.623413251903490817e+01
3.708277587642608523e+03 1.000000000000000000e+02
4.035216881818458205e+03 1.778279410038922776e+02
4.391658728352959770e+03 3.162277660168379612e+02
