# Temperature (K), Pressure (bars)
2.035036253814359497e+03 9.999999999999999547e-07
2.065586084385862250e+03 1.778279410038922901e-06
2.096135914957537352e+03 3.162277660168379191e-06
2.131613621264567428e+03 5.623413251903491208e-06
2.172558483450891799e+03 1.000000000000000082e-05
2.215000892178891718e+03 1.778279410038922901e-05
2.255978639352534628e+03 3.162277660168379530e-05
2.294357018921597955e+03 5.623413251903490700e-05
2.329174640364529296e+03 1.000000000000000048e-04
2.360460850122844931e+03 1.778279410038922698e-04
2.389686178224359537e+03 3.162277660168379394e-04
2.419063017276027949e+03 5.623413251903490971e-04
2.450626649545911278e+03 1.000000000000000021e-03
2.486449608040019484e+03 1.778279410038922752e-03
2.528658237713598282e+03 3.162277660168379394e-03
2.580247684511547050e+03 5.623413251903490971e-03
2.642647094706813732e+03 1.000000000000000021e-02
2.719442938851964300e+03 1.778279410038922925e-02
2.820132821658844932e+03 3.162277660168379134e-02
2.945834339264596565e+03 5.623413251903491145e-02
3.090749289649738330e+03 1.000000000000000056e-01
3.254995724015725500e+03 1.778279410038922925e-01
3.441082071135082515e+03 3.162277660168379412e-01
3.649975555191725107e+03 5.623413251903490728e-01
3.883293047284030763e+03 1.000000000000000000e+00
4.146351309180821772e+03 1.778279410038922759e+00
4.450133753979580433e+03 3.162277660168379523e+00
4.800502192928781369e+03 5.623413251903491172e+00
5.238390596910301610e+03 1.000000000000000000e+01
5.815662424078516779e+03 1.778279410038922848e+01
6.627363787647369463e+03 3.162277660168379256e+01
7.836232991593468796e+03 5.623413251903490817e+01
9.530473720354493707e+03 1.000000000000000000e+02
1.160598154837341281e+04 1.778279410038922776e+02
1.407650561289558391e+04 3.162277660168379612e+02
