# Temperature (K), Pressure (bars)
9.414499940118206496e+02 1.000000000000000048e-04
9.875414116549043229e+02 1.778279410038922698e-04
1.033632828084504354e+03 3.162277660168379394e-04
1.068946358715754059e+03 5.623413251903490971e-04
1.095600788999300903e+03 1.000000000000000021e-03
1.119286291285513926e+03 1.778279410038922752e-03
1.142734497243408214e+03 3.162277660168379394e-03
1.168149660545575216e+03 5.623413251903490971e-03
1.197387108753064467e+03 1.000000000000000021e-02
1.230989523928539484e+03 1.778279410038922925e-02
1.269779937360084659e+03 3.162277660168379134e-02
1.313459890927373181e+03 5.623413251903491145e-02
1.362209962413463472e+03 1.000000000000000056e-01
1.426965608683666687e+03 1.778279410038922925e-01
1.526261352287147702e+03 3.162277660168379412e-01
1.658126901090503907e+03 5.623413251903490728e-01
1.845364742952107918e+03 1.000000000000000000e+00
2.114064662078353649e+03 1.778279410038922759e+00
2.407788686971403877e+03 3.162277660168379523e+00
2.685036622558257022e+03 5.623413251903491172e+00
2.954479408082375357e+03 1.000000000000000000e+01
3.221188101896194894e+03 1.778279410038922848e+01
3.494603310760225668e+03 3.162277660168379256e+01
3.781356106335023014e+03 5.623413251903490817e+01
4.088739339055946402e+03 1.000000000000000000e+02
4.420786189616623233e+03 1.778279410038922776e+02
4.793049995249559288e+03 3.162277660168379612e+02
