# Temperature (K), Pressure (bars)
1.826331707743608149e+03 9.999999999999999547e-07
1.849829712701225844e+03 1.778279410038922901e-06
1.873327717661153656e+03 3.162277660168379191e-06
1.902943837500433801e+03 5.623413251903491208e-06
1.939112923955550741e+03 1.000000000000000082e-05
1.981116198554080938e+03 1.778279410038922901e-05
2.029613683251436441e+03 3.162277660168379530e-05
2.083177261517887928e+03 5.623413251903490700e-05
2.140385187830110226e+03 1.000000000000000048e-04
2.201526148113116506e+03 1.778279410038922698e-04
2.267755328622799425e+03 3.162277660168379394e-04
2.341255488659643561e+03 5.623413251903490971e-04
2.425120420164253119e+03 1.000000000000000021e-03
2.521187577501445503e+03 1.778279410038922752e-03
2.628274835315960445e+03 3.162277660168379394e-03
2.745186368956810838e+03 5.623413251903490971e-03
2.872566397524010426e+03 1.000000000000000021e-02
3.012519943434098423e+03 1.778279410038922925e-02
3.169574595870617031e+03 3.162277660168379134e-02
3.353071817537281277e+03 5.623413251903491145e-02
3.592203647925586665e+03 1.000000000000000056e-01
3.828814328082550219e+03 1.778279410038922925e-01
4.131965937031335670e+03 3.162277660168379412e-01
4.566008126332038046e+03 5.623413251903490728e-01
5.285221732856327435e+03 1.000000000000000000e+00
6.441108226270764135e+03 1.778279410038922759e+00
7.975652024213427467e+03 3.162277660168379523e+00
9.627473736568874301e+03 5.623413251903491172e+00
1.140701188385372188e+04 1.000000000000000000e+01
1.359558771803552008e+04 1.778279410038922848e+01
1.635796512927383810e+04 3.162277660168379256e+01
1.982206416377970527e+04 5.623413251903490817e+01
2.411902704561706196e+04 1.000000000000000000e+02
2.936545946591481334e+04 1.778279410038922776e+02
3.562384352622303413e+04 3.162277660168379612e+02
