# Temperature (K), Pressure (bars)
1.232203319982863832e+03 5.623413251903490700e-05
1.280022187849785496e+03 1.000000000000000048e-04
1.327841057784454961e+03 1.778279410038922698e-04
1.378750218521184024e+03 3.162277660168379394e-04
1.453357620313036250e+03 5.623413251903490971e-04
1.532480503355178143e+03 1.000000000000000021e-03
1.590612979963170119e+03 1.778279410038922752e-03
1.637876038570136643e+03 3.162277660168379394e-03
1.685628010483581420e+03 5.623413251903490971e-03
1.733783483744094610e+03 1.000000000000000021e-02
1.782591508542820293e+03 1.778279410038922925e-02
1.833867607396809262e+03 3.162277660168379134e-02
1.890038920204706301e+03 5.623413251903491145e-02
1.952293508256751920e+03 1.000000000000000056e-01
2.031062686760054021e+03 1.778279410038922925e-01
2.125747617839388568e+03 3.162277660168379412e-01
2.263767429093717055e+03 5.623413251903490728e-01
2.484241346922887260e+03 1.000000000000000000e+00
2.730847886763035149e+03 1.778279410038922759e+00
2.960361288443740705e+03 3.162277660168379523e+00
3.189696145358869671e+03 5.623413251903491172e+00
3.425199541270552345e+03 1.000000000000000000e+01
3.672337166127141700e+03 1.778279410038922848e+01
3.938528813410955536e+03 3.162277660168379256e+01
4.229727384145509859e+03 5.623413251903490817e+01
4.552838495450783739e+03 1.000000000000000000e+02
4.910872560770109885e+03 1.778279410038922776e+02
5.324155250957044700e+03 3.162277660168379612e+02
