# Temperature (K), Pressure (bars)
1.047046745443495411e+03 5.623413251903490700e-05
1.089534192278865476e+03 1.000000000000000048e-04
1.132021641094425831e+03 1.778279410038922698e-04
1.174749825965331638e+03 3.162277660168379394e-04
1.220123888991023023e+03 5.623413251903490971e-04
1.268571506653363031e+03 1.000000000000000021e-03
1.321211003060862140e+03 1.778279410038922752e-03
1.380637947034548233e+03 3.162277660168379394e-03
1.449451775424173320e+03 5.623413251903490971e-03
1.525990548442683121e+03 1.000000000000000021e-02
1.612363083483235641e+03 1.778279410038922925e-02
1.712868966511800636e+03 3.162277660168379134e-02
1.823629034171379772e+03 5.623413251903491145e-02
1.940371209942684800e+03 1.000000000000000056e-01
2.089764597056005641e+03 1.778279410038922925e-01
2.297203599531643704e+03 3.162277660168379412e-01
2.523985582040801091e+03 5.623413251903490728e-01
2.738701144674821990e+03 1.000000000000000000e+00
2.949473502089623253e+03 1.778279410038922759e+00
3.162161336843767003e+03 3.162277660168379523e+00
3.381369836225856488e+03 5.623413251903491172e+00
3.611793665743977272e+03 1.000000000000000000e+01
3.858790962795706491e+03 1.778279410038922848e+01
4.130029421348142932e+03 3.162277660168379256e+01
4.430908079016327065e+03 5.623413251903490817e+01
4.768892098151062783e+03 1.000000000000000000e+02
5.147465950260630052e+03 1.778279410038922776e+02
5.589787763722776617e+03 3.162277660168379612e+02
