# Temperature (K), Pressure (bars)
1.418408862864968569e+03 1.778279410038922901e-06
1.445946252307406667e+03 3.162277660168379191e-06
1.473483644587147637e+03 5.623413251903491208e-06
1.510127774846138436e+03 1.000000000000000082e-05
1.558399412222019237e+03 1.778279410038922901e-05
1.618554536623464855e+03 3.162277660168379530e-05
1.680975991270128816e+03 5.623413251903490700e-05
1.741241273692859068e+03 1.000000000000000048e-04
1.804714113009222729e+03 1.778279410038922698e-04
1.871722770401212301e+03 3.162277660168379394e-04
1.941787014918349996e+03 5.623413251903490971e-04
2.015758980903159454e+03 1.000000000000000021e-03
2.097562291282435581e+03 1.778279410038922752e-03
2.197434765455532215e+03 3.162277660168379394e-03
2.316453219138539680e+03 5.623413251903490971e-03
2.444781480277049923e+03 1.000000000000000021e-02
2.578302297223956430e+03 1.778279410038922925e-02
2.718516043721314418e+03 3.162277660168379134e-02
2.866937255811285013e+03 5.623413251903491145e-02
3.025337196823305021e+03 1.000000000000000056e-01
3.195847995940090186e+03 1.778279410038922925e-01
3.380589654551419699e+03 3.162277660168379412e-01
3.581371073651149800e+03 5.623413251903490728e-01
3.800793266697532545e+03 1.000000000000000000e+00
4.044034478817044146e+03 1.778279410038922759e+00
4.319723995873844615e+03 3.162277660168379523e+00
4.640718277780041717e+03 5.623413251903491172e+00
5.021217468141772770e+03 1.000000000000000000e+01
5.498317531124605011e+03 1.778279410038922848e+01
6.125329247444622524e+03 3.162277660168379256e+01
6.989682685881508405e+03 5.623413251903490817e+01
8.241883603595211753e+03 1.000000000000000000e+02
9.984656835416732065e+03 1.778279410038922776e+02
1.000000000000000000e+04 3.162277660168379612e+02
