# Temperature (K), Pressure (bars)
2.030044245798533893e+03 9.999999999999999547e-07
2.038924048578905285e+03 1.778279410038922901e-06
2.047803851359382861e+03 3.162277660168379191e-06
2.064767985035271522e+03 5.623413251903491208e-06
2.090773236074910528e+03 1.000000000000000082e-05
2.124123969132212551e+03 1.778279410038922901e-05
2.162916475122988231e+03 3.162277660168379530e-05
2.203454803766886471e+03 5.623413251903490700e-05
2.242308219581160301e+03 1.000000000000000048e-04
2.277901752345605018e+03 1.778279410038922698e-04
2.310030870681606302e+03 3.162277660168379394e-04
2.339407305937453657e+03 5.623413251903490971e-04
2.367524962567773855e+03 1.000000000000000021e-03
2.396425306155313137e+03 1.778279410038922752e-03
2.428238957309612033e+03 3.162277660168379394e-03
2.464892306048317550e+03 5.623413251903490971e-03
2.508763586223290531e+03 1.000000000000000021e-02
2.562496462838535081e+03 1.778279410038922925e-02
2.631275694191559069e+03 3.162277660168379134e-02
2.728431613726597789e+03 5.623413251903491145e-02
2.857732228880431649e+03 1.000000000000000056e-01
3.004981484975233343e+03 1.778279410038922925e-01
3.164372061892253441e+03 3.162277660168379412e-01
3.339979327055020804e+03 5.623413251903490728e-01
3.533550816902797123e+03 1.000000000000000000e+00
3.746188471578258941e+03 1.778279410038922759e+00
3.980050994871568946e+03 3.162277660168379523e+00
4.239841095511444109e+03 5.623413251903491172e+00
4.533240175674438433e+03 1.000000000000000000e+01
4.871167133816697969e+03 1.778279410038922848e+01
5.269763599935071397e+03 3.162277660168379256e+01
5.751372488208985487e+03 5.623413251903490817e+01
6.349463134350850851e+03 1.000000000000000000e+02
7.117335273277232773e+03 1.778279410038922776e+02
8.146448791464741589e+03 3.162277660168379612e+02
