# Temperature (K), Pressure (bars)
1.049448751702880600e+03 1.000000000000000021e-03
1.094396035904721202e+03 1.778279410038922752e-03
1.139343321834498283e+03 3.162277660168379394e-03
1.180560690107715118e+03 5.623413251903490971e-03
1.215227211690673585e+03 1.000000000000000021e-02
1.241781302065684940e+03 1.778279410038922925e-02
1.263721267269136206e+03 3.162277660168379134e-02
1.287109511650042805e+03 5.623413251903491145e-02
1.315963481152468603e+03 1.000000000000000056e-01
1.352413892766572644e+03 1.778279410038922925e-01
1.401741597451625012e+03 3.162277660168379412e-01
1.471422273249668933e+03 5.623413251903490728e-01
1.562040946163880108e+03 1.000000000000000000e+00
1.681314202062168079e+03 1.778279410038922759e+00
1.830384837564543204e+03 3.162277660168379523e+00
2.035822674715310086e+03 5.623413251903491172e+00
2.327027941244290560e+03 1.000000000000000000e+01
2.646289960809423974e+03 1.778279410038922848e+01
2.954961487825230961e+03 3.162277660168379256e+01
3.264269812000464754e+03 5.623413251903490817e+01
3.580175469931919906e+03 1.000000000000000000e+02
3.907625719741099601e+03 1.778279410038922776e+02
4.260996663333449760e+03 3.162277660168379612e+02
