# Temperature (K), Pressure (bars)
1.095089631235481647e+03 3.162277660168379394e-04
1.134396155613420206e+03 5.623413251903490971e-04
1.173702670792293475e+03 1.000000000000000021e-03
1.208298124054383379e+03 1.778279410038922752e-03
1.240836070791817974e+03 3.162277660168379394e-03
1.270108699713698115e+03 5.623413251903490971e-03
1.302656158589409415e+03 1.000000000000000021e-02
1.361299647577388441e+03 1.778279410038922925e-02
1.443651354989250649e+03 3.162277660168379134e-02
1.544150612269519115e+03 5.623413251903491145e-02
1.668511842202412936e+03 1.000000000000000056e-01
1.786418662702658139e+03 1.778279410038922925e-01
1.894158875602889566e+03 3.162277660168379412e-01
2.008014600602190285e+03 5.623413251903490728e-01
2.159155624963855189e+03 1.000000000000000000e+00
2.391632173269970735e+03 1.778279410038922759e+00
2.658732416554229530e+03 3.162277660168379523e+00
2.913293291220357787e+03 5.623413251903491172e+00
3.164641573579931446e+03 1.000000000000000000e+01
3.419574736674168889e+03 1.778279410038922848e+01
3.686507587585947476e+03 3.162277660168379256e+01
3.972038755782341923e+03 5.623413251903490817e+01
4.283154611659678267e+03 1.000000000000000000e+02
4.623018474611882084e+03 1.778279410038922776e+02
5.009040252539212815e+03 3.162277660168379612e+02
