# Temperature (K), Pressure (bars)
1.042687751304536050e+03 3.162277660168379394e-04
1.099188840916959634e+03 5.623413251903490971e-04
1.155689932061547097e+03 1.000000000000000021e-03
1.211825846028824117e+03 1.778279410038922752e-03
1.268043626778242469e+03 3.162277660168379394e-03
1.325490762579423972e+03 5.623413251903490971e-03
1.386448789052934217e+03 1.000000000000000021e-02
1.452996303827304246e+03 1.778279410038922925e-02
1.534044459879632996e+03 3.162277660168379134e-02
1.640463066387345634e+03 5.623413251903491145e-02
1.794355878542063692e+03 1.000000000000000056e-01
2.013284874769532735e+03 1.778279410038922925e-01
2.259093287106197295e+03 3.162277660168379412e-01
2.492493479533874051e+03 5.623413251903490728e-01
2.713012631320437777e+03 1.000000000000000000e+00
2.927197314740985803e+03 1.778279410038922759e+00
3.141379654031794416e+03 3.162277660168379523e+00
3.360924369360230230e+03 5.623413251903491172e+00
3.591048063886064483e+03 1.000000000000000000e+01
3.837274757543447777e+03 1.778279410038922848e+01
4.107313326406505439e+03 3.162277660168379256e+01
4.406361827213251672e+03 5.623413251903490817e+01
4.741734966966160755e+03 1.000000000000000000e+02
5.116815009728213226e+03 1.778279410038922776e+02
5.554142651362561082e+03 3.162277660168379612e+02
