# Temperature (K), Pressure (bars)
8.353943179697745336e+02 1.000000000000000082e-05
8.891205111556573684e+02 1.778279410038922901e-05
9.428466886683672783e+02 3.162277660168379530e-05
9.893376773688822823e+02 5.623413251903490700e-05
1.036878624419681728e+03 1.000000000000000048e-04
1.091727694833549776e+03 1.778279410038922698e-04
1.149981967773844644e+03 3.162277660168379394e-04
1.200538350808338691e+03 5.623413251903490971e-04
1.244535586705080277e+03 1.000000000000000021e-03
1.308580609135382019e+03 1.778279410038922752e-03
1.436182493053722510e+03 3.162277660168379394e-03
1.626591730770325512e+03 5.623413251903490971e-03
1.811119241380199583e+03 1.000000000000000021e-02
1.951914321113748883e+03 1.778279410038922925e-02
2.089144504625521222e+03 3.162277660168379134e-02
2.264510958115512040e+03 5.623413251903491145e-02
2.452920372812925962e+03 1.000000000000000056e-01
2.631221250307813534e+03 1.778279410038922925e-01
2.809539404258934155e+03 3.162277660168379412e-01
2.991656909489406644e+03 5.623413251903490728e-01
3.179372628286690997e+03 1.000000000000000000e+00
3.374637966220714588e+03 1.778279410038922759e+00
3.580912525570703110e+03 3.162277660168379523e+00
3.802777989935114419e+03 5.623413251903491172e+00
4.045344683472815632e+03 1.000000000000000000e+01
4.314387949649912116e+03 1.778279410038922848e+01
4.616912163558958127e+03 3.162277660168379256e+01
4.962227674413274144e+03 5.623413251903490817e+01
5.367087110324977402e+03 1.000000000000000000e+02
5.843337803202854957e+03 1.778279410038922776e+02
6.413573646387295412e+03 3.162277660168379612e+02
