# Temperature (K), Pressure (bars)
9.071193172443374806e+02 5.623413251903490971e-04
9.594297160585030042e+02 1.000000000000000021e-03
1.011740116387839407e+03 1.778279410038922752e-03
1.062366388953108753e+03 3.162277660168379394e-03
1.112509483679482173e+03 5.623413251903490971e-03
1.163407828728450113e+03 1.000000000000000021e-02
1.216523309286568292e+03 1.778279410038922925e-02
1.275197393039744838e+03 3.162277660168379134e-02
1.343878620974570822e+03 5.623413251903491145e-02
1.431694922798314565e+03 1.000000000000000056e-01
1.552706995397520132e+03 1.778279410038922925e-01
1.735570955252728027e+03 3.162277660168379412e-01
1.987596335504532362e+03 5.623413251903490728e-01
2.260656524612792509e+03 1.000000000000000000e+00
2.521865767301730102e+03 1.778279410038922759e+00
2.772628667082743959e+03 3.162277660168379523e+00
3.016320492953294888e+03 5.623413251903491172e+00
3.259507094654300090e+03 1.000000000000000000e+01
3.509411394034745172e+03 1.778279410038922848e+01
3.774773863929386152e+03 3.162277660168379256e+01
4.061152413339064879e+03 5.623413251903490817e+01
4.375318347622680449e+03 1.000000000000000000e+02
4.720296551153073779e+03 1.778279410038922776e+02
5.114378710906154083e+03 3.162277660168379612e+02
