# Temperature (K), Pressure (bars)
2.315848771503286116e+03 9.999999999999999547e-07
2.341965437380779349e+03 1.778279410038922901e-06
2.368082103258273037e+03 3.162277660168379191e-06
2.399283176780926624e+03 5.623413251903491208e-06
2.432643960879692713e+03 1.000000000000000082e-05
2.466795018038991657e+03 1.778279410038922901e-05
2.500586096845701832e+03 3.162277660168379530e-05
2.531377992680112129e+03 5.623413251903490700e-05
2.557999291799749699e+03 1.000000000000000048e-04
2.580766856666820786e+03 1.778279410038922698e-04
2.602970068080137025e+03 3.162277660168379394e-04
2.630436369532172648e+03 5.623413251903490971e-04
2.669034920229693853e+03 1.000000000000000021e-03
2.722184770998207568e+03 1.778279410038922752e-03
2.790898705323040303e+03 3.162277660168379394e-03
2.875019153490821282e+03 5.623413251903490971e-03
2.974929784375008239e+03 1.000000000000000021e-02
3.089511840887610560e+03 1.778279410038922925e-02
3.221757687466109473e+03 3.162277660168379134e-02
3.385501493309996476e+03 5.623413251903491145e-02
3.601285665475054884e+03 1.000000000000000056e-01
3.841415201586634794e+03 1.778279410038922925e-01
4.151931238742821733e+03 3.162277660168379412e-01
4.603218247483771847e+03 5.623413251903490728e-01
5.354592318104113474e+03 1.000000000000000000e+00
6.544337996414668851e+03 1.778279410038922759e+00
8.095848351331658705e+03 3.162277660168379523e+00
9.739881825628921433e+03 5.623413251903491172e+00
1.152111344680970797e+04 1.000000000000000000e+01
1.373115948745172318e+04 1.778279410038922848e+01
1.652036886895780481e+04 3.162277660168379256e+01
2.001828632505034693e+04 5.623413251903490817e+01
2.435699489047922543e+04 1.000000000000000000e+02
2.965438653708534548e+04 1.778279410038922776e+02
3.597352393145011592e+04 3.162277660168379612e+02
