# Temperature (K), Pressure (bars)
2.254798976829515141e+03 9.999999999999999547e-07
2.269034725066273495e+03 1.778279410038922901e-06
2.283270473303747622e+03 3.162277660168379191e-06
2.304436285443203815e+03 5.623413251903491208e-06
2.330014740953560249e+03 1.000000000000000082e-05
2.357026813900823072e+03 1.778279410038922901e-05
2.385054640743021992e+03 3.162277660168379530e-05
2.413636818386649793e+03 5.623413251903490700e-05
2.442589346837524317e+03 1.000000000000000048e-04
2.471434214138726929e+03 1.778279410038922698e-04
2.498832598201281144e+03 3.162277660168379394e-04
2.523572226707643949e+03 5.623413251903490971e-04
2.545408271866441282e+03 1.000000000000000021e-03
2.565521399177850071e+03 1.778279410038922752e-03
2.586322109055242436e+03 3.162277660168379394e-03
2.611157156860242139e+03 5.623413251903490971e-03
2.641030100874485470e+03 1.000000000000000021e-02
2.680568354264345544e+03 1.778279410038922925e-02
2.728222904461280450e+03 3.162277660168379134e-02
2.800195309912056018e+03 5.623413251903491145e-02
2.923749874144568821e+03 1.000000000000000056e-01
3.074607520667673271e+03 1.778279410038922925e-01
3.232659563188005450e+03 3.162277660168379412e-01
3.407974749063287618e+03 5.623413251903490728e-01
3.603801441066101233e+03 1.000000000000000000e+00
3.822139003031964421e+03 1.778279410038922759e+00
4.065352671448427827e+03 3.162277660168379523e+00
4.338459933223983171e+03 5.623413251903491172e+00
4.650332321641180897e+03 1.000000000000000000e+01
5.012366301812842721e+03 1.778279410038922848e+01
5.448875234100357375e+03 3.162277660168379256e+01
5.992415793393333843e+03 5.623413251903490817e+01
6.699124199235095148e+03 1.000000000000000000e+02
7.663663901709662241e+03 1.778279410038922776e+02
9.018578478735034878e+03 3.162277660168379612e+02
