# Temperature (K), Pressure (bars)
2.136947148231607571e+03 9.999999999999999547e-07
2.169775523731467274e+03 1.778279410038922901e-06
2.202603899231327432e+03 3.162277660168379191e-06
2.237894431881576111e+03 5.623413251903491208e-06
2.277166374550697583e+03 1.000000000000000082e-05
2.319482528339875898e+03 1.778279410038922901e-05
2.362734395974453491e+03 3.162277660168379530e-05
2.404488957567497891e+03 5.623413251903490700e-05
2.442904585908301669e+03 1.000000000000000048e-04
2.477539809272792809e+03 1.778279410038922698e-04
2.509169501150435735e+03 3.162277660168379394e-04
2.539953713478952977e+03 5.623413251903490971e-04
2.572606602494334766e+03 1.000000000000000021e-03
2.609838484243569837e+03 1.778279410038922752e-03
2.653821795518655108e+03 3.162277660168379394e-03
2.707621344547079843e+03 5.623413251903490971e-03
2.772880676537793079e+03 1.000000000000000021e-02
2.855256176869553656e+03 1.778279410038922925e-02
2.965216751524922074e+03 3.162277660168379134e-02
3.101265578753064801e+03 5.623413251903491145e-02
3.258908655163555068e+03 1.000000000000000056e-01
3.444236096121874652e+03 1.778279410038922925e-01
3.641950963436556776e+03 3.162277660168379412e-01
3.870071914122723229e+03 5.623413251903490728e-01
4.136461435580450598e+03 1.000000000000000000e+00
4.443922897012752401e+03 1.778279410038922759e+00
4.832223931746907510e+03 3.162277660168379523e+00
5.355070300166358720e+03 5.623413251903491172e+00
6.107210427669604542e+03 1.000000000000000000e+01
7.230764125572185549e+03 1.778279410038922848e+01
8.843800273251119506e+03 3.162277660168379256e+01
1.000000000000000000e+04 5.623413251903490817e+01
1.000000000000000000e+04 1.000000000000000000e+02
1.000000000000000000e+04 1.778279410038922776e+02
1.000000000000000000e+04 3.162277660168379612e+02
