# Temperature (K), Pressure (bars)
7.711154946618050872e+02 3.162277660168379394e-04
8.140816850403508624e+02 5.623413251903490971e-04
8.570478765626080531e+02 1.000000000000000021e-03
8.998004309597663450e+02 1.778279410038922752e-03
9.426776981575906120e+02 3.162277660168379394e-03
9.862996049493527835e+02 5.623413251903490971e-03
1.031314414769324685e+03 1.000000000000000021e-02
1.079535308888668851e+03 1.778279410038922925e-02
1.134607929373731395e+03 3.162277660168379134e-02
1.201489498469488808e+03 5.623413251903491145e-02
1.286526363501201786e+03 1.000000000000000056e-01
1.400067315342489110e+03 1.778279410038922925e-01
1.569483386915472465e+03 3.162277660168379412e-01
1.806210200743189489e+03 5.623413251903490728e-01
2.075994188690342980e+03 1.000000000000000000e+00
2.349155691913947976e+03 1.778279410038922759e+00
2.616537173023435116e+03 3.162277660168379523e+00
2.874600636511588618e+03 5.623413251903491172e+00
3.127724412153937919e+03 1.000000000000000000e+01
3.383230292428968369e+03 1.778279410038922848e+01
3.650582142327672500e+03 3.162277660168379256e+01
3.935709258675203273e+03 5.623413251903490817e+01
4.245566547093218105e+03 1.000000000000000000e+02
4.583261074827420998e+03 1.778279410038922776e+02
4.966127036898379629e+03 3.162277660168379612e+02
