# Temperature (K), Pressure (bars)
1.473982725678517681e+03 3.162277660168379191e-06
1.499155474714210641e+03 5.623413251903491208e-06
1.524918773566078471e+03 1.000000000000000082e-05
1.558059642167883794e+03 1.778279410038922901e-05
1.605144346141114511e+03 3.162277660168379530e-05
1.659683165827350422e+03 5.623413251903490700e-05
1.713557455869773548e+03 1.000000000000000048e-04
1.767395362894404116e+03 1.778279410038922698e-04
1.825091637467677629e+03 3.162277660168379394e-04
1.886706218770490068e+03 5.623413251903490971e-04
1.951133622735569134e+03 1.000000000000000021e-03
2.018805772168773274e+03 1.778279410038922752e-03
2.091094147352777327e+03 3.162277660168379394e-03
2.169811580929320826e+03 5.623413251903490971e-03
2.267613832192937480e+03 1.000000000000000021e-02
2.394012690309115442e+03 1.778279410038922925e-02
2.532497126691337144e+03 3.162277660168379134e-02
2.673132051882239011e+03 5.623413251903491145e-02
2.820658978092184043e+03 1.000000000000000056e-01
2.976993720087240945e+03 1.778279410038922925e-01
3.144062021819789607e+03 3.162277660168379412e-01
3.323773095915378235e+03 5.623413251903490728e-01
3.517771251581176330e+03 1.000000000000000000e+00
3.727909648880288387e+03 1.778279410038922759e+00
3.957490260219761694e+03 3.162277660168379523e+00
4.211951217920677664e+03 5.623413251903491172e+00
4.498891433839147794e+03 1.000000000000000000e+01
4.828666903036435542e+03 1.778279410038922848e+01
5.217103199316671635e+03 3.162277660168379256e+01
5.684795983594380232e+03 5.623413251903490817e+01
6.263118929649408528e+03 1.000000000000000000e+02
7.000376044554739565e+03 1.778279410038922776e+02
7.975827300554091380e+03 3.162277660168379612e+02
