# Temperature (K), Pressure (bars)
7.720499996333733179e+02 3.162277660168379530e-05
8.203156313515414695e+02 5.623413251903490700e-05
8.686005247175148725e+02 1.000000000000000048e-04
9.162112937463971321e+02 1.778279410038922698e-04
9.646712456203347301e+02 3.162277660168379394e-04
1.016748123056921031e+03 5.623413251903490971e-04
1.075373377041926005e+03 1.000000000000000021e-03
1.142691898132729648e+03 1.778279410038922752e-03
1.222310806958396370e+03 3.162277660168379394e-03
1.318248441865183850e+03 5.623413251903490971e-03
1.448820670812360277e+03 1.000000000000000021e-02
1.644605521548570096e+03 1.778279410038922925e-02
1.892454605374125549e+03 3.162277660168379134e-02
2.143368409090127898e+03 5.623413251903491145e-02
2.370959399412040511e+03 1.000000000000000056e-01
2.574736895500044739e+03 1.778279410038922925e-01
2.762903601551021893e+03 3.162277660168379412e-01
2.944496157973678692e+03 5.623413251903490728e-01
3.126696084606730437e+03 1.000000000000000000e+00
3.315192021351369476e+03 1.778279410038922759e+00
3.514697422305469445e+03 3.162277660168379523e+00
3.729552714915751494e+03 5.623413251903491172e+00
3.964250716131821719e+03 1.000000000000000000e+01
4.223875885515271875e+03 1.778279410038922848e+01
4.514629423808325555e+03 3.162277660168379256e+01
4.844891966180121017e+03 5.623413251903490817e+01
5.230402098749480501e+03 1.000000000000000000e+02
5.680744758348511823e+03 1.778279410038922776e+02
6.215821847204864753e+03 3.162277660168379612e+02
