# Temperature (K), Pressure (bars)
1.839514255707263601e+03 3.162277660168379191e-06
1.845124103749539699e+03 5.623413251903491208e-06
1.855273953612292871e+03 1.000000000000000082e-05
1.869547098114143182e+03 1.778279410038922901e-05
1.889071732732901637e+03 3.162277660168379530e-05
1.915680070312925181e+03 5.623413251903490700e-05
1.948682173352689233e+03 1.000000000000000048e-04
1.987797823810378759e+03 1.778279410038922698e-04
2.033519380841167731e+03 3.162277660168379394e-04
2.084703989546012053e+03 5.623413251903490971e-04
2.139933981544815651e+03 1.000000000000000021e-03
2.200784499699727348e+03 1.778279410038922752e-03
2.266560077632808770e+03 3.162277660168379394e-03
2.345831611773252916e+03 5.623413251903490971e-03
2.451868316113930632e+03 1.000000000000000021e-02
2.572759094441357774e+03 1.778279410038922925e-02
2.698342664016194249e+03 3.162277660168379134e-02
2.832774449565473333e+03 5.623413251903491145e-02
2.977595738560075006e+03 1.000000000000000056e-01
3.134781549905348584e+03 1.778279410038922925e-01
3.306801351102122680e+03 3.162277660168379412e-01
3.496135996177973539e+03 5.623413251903490728e-01
3.704816019581835917e+03 1.000000000000000000e+00
3.935406816225940929e+03 1.778279410038922759e+00
4.193041947037656428e+03 3.162277660168379523e+00
4.486445562195938692e+03 5.623413251903491172e+00
4.824643579104705168e+03 1.000000000000000000e+01
5.233027223992151448e+03 1.778279410038922848e+01
5.744059761706958852e+03 3.162277660168379256e+01
6.414709075507958005e+03 5.623413251903490817e+01
7.347873483830632722e+03 1.000000000000000000e+02
8.687696345652308082e+03 1.778279410038922776e+02
1.047424832966593749e+04 3.162277660168379612e+02
