# Temperature (K), Pressure (bars)
1.175021297389330130e+03 3.162277660168379394e-04
1.220964943199764321e+03 5.623413251903490971e-04
1.266908591397436794e+03 1.000000000000000021e-03
1.314608637447915726e+03 1.778279410038922752e-03
1.363985522678284269e+03 3.162277660168379394e-03
1.419469239257171239e+03 5.623413251903490971e-03
1.484081559320964516e+03 1.000000000000000021e-02
1.553186746694693284e+03 1.778279410038922925e-02
1.629755297449891486e+03 3.162277660168379134e-02
1.720637514868805511e+03 5.623413251903491145e-02
1.815370412205267712e+03 1.000000000000000056e-01
1.909766728960593127e+03 1.778279410038922925e-01
2.020664165483954775e+03 3.162277660168379412e-01
2.158253102643966486e+03 5.623413251903490728e-01
2.345724531143021522e+03 1.000000000000000000e+00
2.590702074078351870e+03 1.778279410038922759e+00
2.842753423408774324e+03 3.162277660168379523e+00
3.080367054808023568e+03 5.623413251903491172e+00
3.320287325968312871e+03 1.000000000000000000e+01
3.569338275745901683e+03 1.778279410038922848e+01
3.834806372769176505e+03 3.162277660168379256e+01
4.122725023836074797e+03 5.623413251903490817e+01
4.439900388332795956e+03 1.000000000000000000e+02
4.789337693589093760e+03 1.778279410038922776e+02
5.190015372563404526e+03 3.162277660168379612e+02
