# Temperature (K), Pressure (bars)
9.297793071475075521e+02 1.000000000000000082e-05
9.765192682353822420e+02 1.778279410038922901e-05
1.023256771002658866e+03 3.162277660168379530e-05
1.065184937526406429e+03 5.623413251903490700e-05
1.106843227783406519e+03 1.000000000000000048e-04
1.151621073861274908e+03 1.778279410038922698e-04
1.200470913358607731e+03 3.162277660168379394e-04
1.254678015280588625e+03 5.623413251903490971e-04
1.316369606220444666e+03 1.000000000000000021e-03
1.392280170552986874e+03 1.778279410038922752e-03
1.490823429848187743e+03 3.162277660168379394e-03
1.613384449137600541e+03 5.623413251903490971e-03
1.748271917307195508e+03 1.000000000000000021e-02
1.895376140612409927e+03 1.778279410038922925e-02
2.072437261317548291e+03 3.162277660168379134e-02
2.268837292218761831e+03 5.623413251903491145e-02
2.459893175410154072e+03 1.000000000000000056e-01
2.642900588330704068e+03 1.778279410038922925e-01
2.823567878405903684e+03 3.162277660168379412e-01
3.005745260469920140e+03 5.623413251903490728e-01
3.192096326333208253e+03 1.000000000000000000e+00
3.385708716519854988e+03 1.778279410038922759e+00
3.590747842370619765e+03 3.162277660168379523e+00
3.811915877064223878e+03 5.623413251903491172e+00
4.054224179092992927e+03 1.000000000000000000e+01
4.323381900292163664e+03 1.778279410038922848e+01
4.626420909994361864e+03 3.162277660168379256e+01
4.972854402295562977e+03 5.623413251903490817e+01
5.379830500613589720e+03 1.000000000000000000e+02
5.859852189300730060e+03 1.778279410038922776e+02
6.436879833084672100e+03 3.162277660168379612e+02
