# Temperature (K), Pressure (bars)
2.192867925649702102e+03 9.999999999999999547e-07
2.215596355320019484e+03 1.778279410038922901e-06
2.238324784990336411e+03 3.162277660168379191e-06
2.275097859815654374e+03 5.623413251903491208e-06
2.320890557794892175e+03 1.000000000000000082e-05
2.369567470970125214e+03 1.778279410038922901e-05
2.419633887725995919e+03 3.162277660168379530e-05
2.469043798678153507e+03 5.623413251903490700e-05
2.516044954251809031e+03 1.000000000000000048e-04
2.559720597930625445e+03 1.778279410038922698e-04
2.600227690376827013e+03 3.162277660168379394e-04
2.638693263095757175e+03 5.623413251903490971e-04
2.677638089245559968e+03 1.000000000000000021e-03
2.721112723536728481e+03 1.778279410038922752e-03
2.772767402851556653e+03 3.162277660168379394e-03
2.836239021662242976e+03 5.623413251903490971e-03
2.911421161666765329e+03 1.000000000000000021e-02
3.001279781237717998e+03 1.778279410038922925e-02
3.120577755064497524e+03 3.162277660168379134e-02
3.278200736098669040e+03 5.623413251903491145e-02
3.457355329036142848e+03 1.000000000000000056e-01
3.670412079212092976e+03 1.778279410038922925e-01
3.930966392167190406e+03 3.162277660168379412e-01
4.237778705721881124e+03 5.623413251903490728e-01
4.655687178552944715e+03 1.000000000000000000e+00
5.292206503287655323e+03 1.778279410038922759e+00
6.297329222207469684e+03 3.162277660168379523e+00
7.763967874648950783e+03 5.623413251903491172e+00
9.474140821917178982e+03 1.000000000000000000e+01
1.000000000000000000e+04 1.778279410038922848e+01
1.000000000000000000e+04 3.162277660168379256e+01
1.000000000000000000e+04 5.623413251903490817e+01
1.000000000000000000e+04 1.000000000000000000e+02
1.000000000000000000e+04 1.778279410038922776e+02
1.000000000000000000e+04 3.162277660168379612e+02
