# Temperature (K), Pressure (bars)
2.217548550186344073e+03 9.999999999999999547e-07
2.229906865963340806e+03 1.778279410038922901e-06
2.242265181740337994e+03 3.162277660168379191e-06
2.266266006536221084e+03 5.623413251903491208e-06
2.295350116074903781e+03 1.000000000000000082e-05
2.325805029398326951e+03 1.778279410038922901e-05
2.359210150419087313e+03 3.162277660168379530e-05
2.394202157968330084e+03 5.623413251903490700e-05
2.429646377631790983e+03 1.000000000000000048e-04
2.464110076111742273e+03 1.778279410038922698e-04
2.494700869540564781e+03 3.162277660168379394e-04
2.520390800793660674e+03 5.623413251903490971e-04
2.544618244859656443e+03 1.000000000000000021e-03
2.572829491276597764e+03 1.778279410038922752e-03
2.610117499957101700e+03 3.162277660168379394e-03
2.655467605862667369e+03 5.623413251903490971e-03
2.707611822868903346e+03 1.000000000000000021e-02
2.756390542593029750e+03 1.778279410038922925e-02
2.821666170224447796e+03 3.162277660168379134e-02
2.943621620816049017e+03 5.623413251903491145e-02
3.095806095342645222e+03 1.000000000000000056e-01
3.255348528767158768e+03 1.778279410038922925e-01
3.436078767802895072e+03 3.162277660168379412e-01
3.641397680690871766e+03 5.623413251903490728e-01
3.873391651845224715e+03 1.000000000000000000e+00
4.136269633885203802e+03 1.778279410038922759e+00
4.439948271137829579e+03 3.162277660168379523e+00
4.787612507395628199e+03 5.623413251903491172e+00
5.222374720601295849e+03 1.000000000000000000e+01
5.798471925950563673e+03 1.778279410038922848e+01
6.622395863589204055e+03 3.162277660168379256e+01
7.854060680908079121e+03 5.623413251903490817e+01
9.558238597354693411e+03 1.000000000000000000e+02
1.000000000000000000e+04 1.778279410038922776e+02
1.000000000000000000e+04 3.162277660168379612e+02
