# Temperature (K), Pressure (bars)
2.227821163488524235e+03 9.999999999999999547e-07
2.244943962709433436e+03 1.778279410038922901e-06
2.262066761930342182e+03 3.162277660168379191e-06
2.281308378886426453e+03 5.623413251903491208e-06
2.304424236734202168e+03 1.000000000000000082e-05
2.330599521560118319e+03 1.778279410038922901e-05
2.357300870147435489e+03 3.162277660168379530e-05
2.382141781374928087e+03 5.623413251903490700e-05
2.403835212169700299e+03 1.000000000000000048e-04
2.423518642669679139e+03 1.778279410038922698e-04
2.444558094879113924e+03 3.162277660168379394e-04
2.470500645404359602e+03 5.623413251903490971e-04
2.503900491017923287e+03 1.000000000000000021e-03
2.546567565462405582e+03 1.778279410038922752e-03
2.600545236167701660e+03 3.162277660168379394e-03
2.668121183692338946e+03 5.623413251903490971e-03
2.756472739357411228e+03 1.000000000000000021e-02
2.870125694576529895e+03 1.778279410038922925e-02
3.001542648814726817e+03 3.162277660168379134e-02
3.147552273639602845e+03 5.623413251903491145e-02
3.313197052675965097e+03 1.000000000000000056e-01
3.505704304763021810e+03 1.778279410038922925e-01
3.713642674786972293e+03 3.162277660168379412e-01
3.958167987695653665e+03 5.623413251903490728e-01
4.243575933511059702e+03 1.000000000000000000e+00
4.593868671199999881e+03 1.778279410038922759e+00
5.065528245551824511e+03 3.162277660168379523e+00
5.752589657042729414e+03 5.623413251903491172e+00
6.779826149776699822e+03 1.000000000000000000e+01
8.288819678220614151e+03 1.778279410038922848e+01
1.000000000000000000e+04 3.162277660168379256e+01
1.000000000000000000e+04 5.623413251903490817e+01
1.000000000000000000e+04 1.000000000000000000e+02
1.000000000000000000e+04 1.778279410038922776e+02
1.000000000000000000e+04 3.162277660168379612e+02
