# Temperature (K), Pressure (bars)
1.019704233323036192e+03 3.162277660168379394e-04
1.078683667103473681e+03 5.623413251903490971e-04
1.137663102469620299e+03 1.000000000000000021e-03
1.194627130884462076e+03 1.778279410038922752e-03
1.250932607153948993e+03 3.162277660168379394e-03
1.308230734399251560e+03 5.623413251903490971e-03
1.368489386330820025e+03 1.000000000000000021e-02
1.435466445601465921e+03 1.778279410038922925e-02
1.514609267903445470e+03 3.162277660168379134e-02
1.617584199054612554e+03 5.623413251903491145e-02
1.751835968518235632e+03 1.000000000000000056e-01
1.938067614697522686e+03 1.778279410038922925e-01
2.182459113061710468e+03 3.162277660168379412e-01
2.432310611140487254e+03 5.623413251903490728e-01
2.659798850936530471e+03 1.000000000000000000e+00
2.878436876511072569e+03 1.778279410038922759e+00
3.095472512729758364e+03 3.162277660168379523e+00
3.316670154195770920e+03 5.623413251903491172e+00
3.547376586183376276e+03 1.000000000000000000e+01
3.793176224721974449e+03 1.778279410038922848e+01
4.061752718268119679e+03 3.162277660168379256e+01
4.358309832289442966e+03 5.623413251903490817e+01
4.690054859138140273e+03 1.000000000000000000e+02
5.060064909653806353e+03 1.778279410038922776e+02
5.490549161806444317e+03 3.162277660168379612e+02
