# Temperature (K), Pressure (bars)
9.573779193603357953e+02 5.623413251903490971e-04
1.008391212856842913e+03 1.000000000000000021e-03
1.059404507808481867e+03 1.778279410038922752e-03
1.109900690731564737e+03 3.162277660168379394e-03
1.160295308599108921e+03 5.623413251903490971e-03
1.211860453983768139e+03 1.000000000000000021e-02
1.265177734351246272e+03 1.778279410038922925e-02
1.322453920978913857e+03 3.162277660168379134e-02
1.387790452825420061e+03 5.623413251903491145e-02
1.470982389670079783e+03 1.000000000000000056e-01
1.593381827969288679e+03 1.778279410038922925e-01
1.757343143335151581e+03 3.162277660168379412e-01
1.967950322674569406e+03 5.623413251903490728e-01
2.232234291816087079e+03 1.000000000000000000e+00
2.504519495497579101e+03 1.778279410038922759e+00
2.757071083304343119e+03 3.162277660168379523e+00
3.002079302076836484e+03 5.623413251903491172e+00
3.246473884690946306e+03 1.000000000000000000e+01
3.497203041628855772e+03 1.778279410038922848e+01
3.762807055493063672e+03 3.162277660168379256e+01
4.049119051072128514e+03 5.623413251903490817e+01
4.362891485612530232e+03 1.000000000000000000e+02
4.707212593947926507e+03 1.778279410038922776e+02
5.100267487914298727e+03 3.162277660168379612e+02
