# Temperature (K), Pressure (bars)
1.702356904240484027e+03 9.999999999999999547e-07
1.754368695639051339e+03 1.778279410038922901e-06
1.806380487037618650e+03 3.162277660168379191e-06
1.856877057933881360e+03 5.623413251903491208e-06
1.904417485633702199e+03 1.000000000000000082e-05
1.948247847872427883e+03 1.778279410038922901e-05
1.990199148853658471e+03 3.162277660168379530e-05
2.033395057054983909e+03 5.623413251903490700e-05
2.079314465515634765e+03 1.000000000000000048e-04
2.128933306420261943e+03 1.778279410038922698e-04
2.183809650487416093e+03 3.162277660168379394e-04
2.245793533132836274e+03 5.623413251903490971e-04
2.317727944917806781e+03 1.000000000000000021e-03
2.402651990635191396e+03 1.778279410038922752e-03
2.500456537043989101e+03 3.162277660168379394e-03
2.608584419341841567e+03 5.623413251903490971e-03
2.726643904817113707e+03 1.000000000000000021e-02
2.856973385697844151e+03 1.778279410038922925e-02
3.003165328576881620e+03 3.162277660168379134e-02
3.169883318213269376e+03 5.623413251903491145e-02
3.366061891462767562e+03 1.000000000000000056e-01
3.564668712530615721e+03 1.778279410038922925e-01
3.792863103999910891e+03 3.162277660168379412e-01
4.060151723171583853e+03 5.623413251903490728e-01
4.378952902530156280e+03 1.000000000000000000e+00
4.805170589817613291e+03 1.778279410038922759e+00
5.437662108018998879e+03 3.162277660168379523e+00
6.445401838656133805e+03 5.623413251903491172e+00
7.923291623395357419e+03 1.000000000000000000e+01
9.681449854447741018e+03 1.778279410038922848e+01
1.000000000000000000e+04 3.162277660168379256e+01
1.000000000000000000e+04 5.623413251903490817e+01
1.000000000000000000e+04 1.000000000000000000e+02
1.000000000000000000e+04 1.778279410038922776e+02
1.000000000000000000e+04 3.162277660168379612e+02
