# Temperature (K), Pressure (bars)
2.059576420667966431e+03 9.999999999999999547e-07
2.136300574780155330e+03 1.778279410038922901e-06
2.213024728892343774e+03 3.162277660168379191e-06
2.273424014956255178e+03 5.623413251903491208e-06
2.325676022312517489e+03 1.000000000000000082e-05
2.376126452740262721e+03 1.778279410038922901e-05
2.424781353175415916e+03 3.162277660168379530e-05
2.471220393311603402e+03 5.623413251903490700e-05
2.512713685940552296e+03 1.000000000000000048e-04
2.547679156959131888e+03 1.778279410038922698e-04
2.577228156991215656e+03 3.162277660168379394e-04
2.606140202095481527e+03 5.623413251903490971e-04
2.641030572537556509e+03 1.000000000000000021e-03
2.687386436905722803e+03 1.778279410038922752e-03
2.746628204011542039e+03 3.162277660168379394e-03
2.817391955090388365e+03 5.623413251903490971e-03
2.892142554409116201e+03 1.000000000000000021e-02
2.973401540747712716e+03 1.778279410038922925e-02
3.085413109634540433e+03 3.162277660168379134e-02
3.238648978535228707e+03 5.623413251903491145e-02
3.405525810484122303e+03 1.000000000000000056e-01
3.599310294176157640e+03 1.778279410038922925e-01
3.833008982996672785e+03 3.162277660168379412e-01
4.123871972750846908e+03 5.623413251903490728e-01
4.503678421596689986e+03 1.000000000000000000e+00
5.056073692752957868e+03 1.778279410038922759e+00
5.953588865977018941e+03 3.162277660168379523e+00
7.314628228158942875e+03 5.623413251903491172e+00
8.987298111491609234e+03 1.000000000000000000e+01
1.083642530880992490e+04 1.778279410038922848e+01
1.303962752415586147e+04 3.162277660168379256e+01
1.580259997090648176e+04 5.623413251903490817e+01
1.922947447926761015e+04 1.000000000000000000e+02
2.341153747469371956e+04 1.778279410038922776e+02
2.840147973689360879e+04 3.162277660168379612e+02
