# Temperature (K), Pressure (bars)
6.776868280954217880e+02 9.999999999999999547e-07
7.065820649795023201e+02 1.778279410038922901e-06
7.354773018989358206e+02 3.162277660168379191e-06
7.644821801818800395e+02 5.623413251903491208e-06
7.952939107302604498e+02 1.000000000000000082e-05
8.282869288955671436e+02 1.778279410038922901e-05
8.635483927347329427e+02 3.162277660168379530e-05
9.018756143706550574e+02 5.623413251903490700e-05
9.430715686202513552e+02 1.000000000000000048e-04
9.869637181018829324e+02 1.778279410038922698e-04
1.033958149859533023e+03 3.162277660168379394e-04
1.084962737533641757e+03 5.623413251903490971e-04
1.142306134942307381e+03 1.000000000000000021e-03
1.207775085344385161e+03 1.778279410038922752e-03
1.285561046508978961e+03 3.162277660168379394e-03
1.378021946834394839e+03 5.623413251903490971e-03
1.507777863417226854e+03 1.000000000000000021e-02
1.707640551063451767e+03 1.778279410038922925e-02
1.953432215502576582e+03 3.162277660168379134e-02
2.196256959994829231e+03 5.623413251903491145e-02
2.416467958593003914e+03 1.000000000000000056e-01
2.615123177261284582e+03 1.778279410038922925e-01
2.801080633321958885e+03 3.162277660168379412e-01
2.982104894197742396e+03 5.623413251903490728e-01
3.164607260428130758e+03 1.000000000000000000e+00
3.354051754247268036e+03 1.778279410038922759e+00
3.555136621848370396e+03 3.162277660168379523e+00
3.772303093951457413e+03 5.623413251903491172e+00
4.010207551602617968e+03 1.000000000000000000e+01
4.274182599575675340e+03 1.778279410038922848e+01
4.570794843451563793e+03 3.162277660168379256e+01
4.908900736099289134e+03 5.623413251903490817e+01
5.304684336486068787e+03 1.000000000000000000e+02
5.769206707255462788e+03 1.778279410038922776e+02
6.323804505166168383e+03 3.162277660168379612e+02
