# Temperature (K), Pressure (bars)
8.047339440484314537e+02 9.999999999999999547e-07
8.411439656671774401e+02 1.778279410038922901e-06
8.775539872893889424e+02 3.162277660168379191e-06
9.228803336345276875e+02 5.623413251903491208e-06
9.790540425928579680e+02 1.000000000000000082e-05
1.043654575456816019e+03 1.778279410038922901e-05
1.130361297379442021e+03 3.162277660168379530e-05
1.248394534076284117e+03 5.623413251903490700e-05
1.385186590976324624e+03 1.000000000000000048e-04
1.531373660991702764e+03 1.778279410038922698e-04
1.652091274016151146e+03 3.162277660168379394e-04
1.725813841223286545e+03 5.623413251903490971e-04
1.777738789753942683e+03 1.000000000000000021e-03
1.830759788161287361e+03 1.778279410038922752e-03
1.888952396810386290e+03 3.162277660168379394e-03
1.950545682335686934e+03 5.623413251903490971e-03
2.020410142810676462e+03 1.000000000000000021e-02
2.100766663692595557e+03 1.778279410038922925e-02
2.203482905664166083e+03 3.162277660168379134e-02
2.345892941957755284e+03 5.623413251903491145e-02
2.511580094387188637e+03 1.000000000000000056e-01
2.680149977958335512e+03 1.778279410038922925e-01
2.852815295253387376e+03 3.162277660168379412e-01
3.032201652509166252e+03 5.623413251903490728e-01
3.219264803094345552e+03 1.000000000000000000e+00
3.415190915498328650e+03 1.778279410038922759e+00
3.623017778339877623e+03 3.162277660168379523e+00
3.847250731158584131e+03 5.623413251903491172e+00
4.093119004347294322e+03 1.000000000000000000e+01
4.366672072431596462e+03 1.778279410038922848e+01
4.675336611297685522e+03 3.162277660168379256e+01
5.029097438294946187e+03 5.623413251903490817e+01
5.445536152366301394e+03 1.000000000000000000e+02
5.938883746999064897e+03 1.778279410038922776e+02
6.535335967428453841e+03 3.162277660168379612e+02
