# Temperature (K), Pressure (bars)
1.541078129301802846e+03 5.623413251903491208e-06
1.572490995705520390e+03 1.000000000000000082e-05
1.603903868089584194e+03 1.778279410038922901e-05
1.644072515542535029e+03 3.162277660168379530e-05
1.693906364045796408e+03 5.623413251903490700e-05
1.758017039275146772e+03 1.000000000000000048e-04
1.824849418235303801e+03 1.778279410038922698e-04
1.881584766604549031e+03 3.162277660168379394e-04
1.930544003235055698e+03 5.623413251903490971e-04
1.972951628280924297e+03 1.000000000000000021e-03
2.010159111914446157e+03 1.778279410038922752e-03
2.044137991233443017e+03 3.162277660168379394e-03
2.075534369985248304e+03 5.623413251903490971e-03
2.106728366286521577e+03 1.000000000000000021e-02
2.140167726548959763e+03 1.778279410038922925e-02
2.179360853981152559e+03 3.162277660168379134e-02
2.226167048829327086e+03 5.623413251903491145e-02
2.288098156885536810e+03 1.000000000000000056e-01
2.365908570184640212e+03 1.778279410038922925e-01
2.485587039218438349e+03 3.162277660168379412e-01
2.675677288948932983e+03 5.623413251903490728e-01
2.885631560269142483e+03 1.000000000000000000e+00
3.085230958478934554e+03 1.778279410038922759e+00
3.292209887902150513e+03 3.162277660168379523e+00
3.510302421982339638e+03 5.623413251903491172e+00
3.742829634189953140e+03 1.000000000000000000e+01
3.994609329085907575e+03 1.778279410038922848e+01
4.273010486637143003e+03 3.162277660168379256e+01
4.584489766142820372e+03 5.623413251903490817e+01
4.937369075513169264e+03 1.000000000000000000e+02
5.335589330609200260e+03 1.778279410038922776e+02
5.805410476971670505e+03 3.162277660168379612e+02
