# Temperature (K), Pressure (bars)
1.799900887694753692e+03 9.999999999999999547e-07
1.803987232830429775e+03 1.778279410038922901e-06
1.808073577968715199e+03 3.162277660168379191e-06
1.817426459988950228e+03 5.623413251903491208e-06
1.831954844071657817e+03 1.000000000000000082e-05
1.850355058229813949e+03 1.778279410038922901e-05
1.872955676614544700e+03 3.162277660168379530e-05
1.901185720150976067e+03 5.623413251903490700e-05
1.934600670238532757e+03 1.000000000000000048e-04
1.971605783398989161e+03 1.778279410038922698e-04
2.012534079758315784e+03 3.162277660168379394e-04
2.057240497163608779e+03 5.623413251903490971e-04
2.105572690258493822e+03 1.000000000000000021e-03
2.157672325283811460e+03 1.778279410038922752e-03
2.215242587124065722e+03 3.162277660168379394e-03
2.278475300755539593e+03 5.623413251903490971e-03
2.355744111440013057e+03 1.000000000000000021e-02
2.461276997645780284e+03 1.778279410038922925e-02
2.586712491239716201e+03 3.162277660168379134e-02
2.719905243548881117e+03 5.623413251903491145e-02
2.861713879648884813e+03 1.000000000000000056e-01
3.013902654750673719e+03 1.778279410038922925e-01
3.178655832135550554e+03 3.162277660168379412e-01
3.358143866127619731e+03 5.623413251903490728e-01
3.553931902289150003e+03 1.000000000000000000e+00
3.767529346531481679e+03 1.778279410038922759e+00
4.002028912324038174e+03 3.162277660168379523e+00
4.263067839613489923e+03 5.623413251903491172e+00
4.558896206583452113e+03 1.000000000000000000e+01
4.901095490458254972e+03 1.778279410038922848e+01
5.307554269792954983e+03 3.162277660168379256e+01
5.802844340339076552e+03 5.623413251903490817e+01
6.427078730904595432e+03 1.000000000000000000e+02
7.247793796252556604e+03 1.778279410038922776e+02
8.374126512215902039e+03 3.162277660168379612e+02
