# Temperature (K), Pressure (bars)
8.530446204871692544e+02 3.162277660168379394e-04
8.974612957220242606e+02 5.623413251903490971e-04
9.418779722576103950e+02 1.000000000000000021e-03
9.864037087832593897e+02 1.778279410038922752e-03
1.031276779527565850e+03 3.162277660168379394e-03
1.076445934399812813e+03 5.623413251903490971e-03
1.123762509868187180e+03 1.000000000000000021e-02
1.176623140378571406e+03 1.778279410038922925e-02
1.240912280851371179e+03 3.162277660168379134e-02
1.323831170998155812e+03 5.623413251903491145e-02
1.468006485830468364e+03 1.000000000000000056e-01
1.701349189289958986e+03 1.778279410038922925e-01
1.969805161939591244e+03 3.162277660168379412e-01
2.233722820330096511e+03 5.623413251903490728e-01
2.488699880868912715e+03 1.000000000000000000e+00
2.728786789588128613e+03 1.778279410038922759e+00
2.958843428219230645e+03 3.162277660168379523e+00
3.186651107667118140e+03 5.623413251903491172e+00
3.419785176455299279e+03 1.000000000000000000e+01
3.664959744379547828e+03 1.778279410038922848e+01
3.930658679126141578e+03 3.162277660168379256e+01
4.221349805712302441e+03 5.623413251903490817e+01
4.543781293602379264e+03 1.000000000000000000e+02
4.901377629293561768e+03 1.778279410038922776e+02
5.313288785617815847e+03 3.162277660168379612e+02
