# Temperature (K), Pressure (bars)
9.225714559472086194e+02 3.162277660168379394e-04
9.716136710401750634e+02 5.623413251903490971e-04
1.020655886816381667e+03 1.000000000000000021e-03
1.064631813401739237e+03 1.778279410038922752e-03
1.106513398141908056e+03 3.162277660168379394e-03
1.149197911211084374e+03 5.623413251903490971e-03
1.194226323919268680e+03 1.000000000000000021e-02
1.243587442456432655e+03 1.778279410038922925e-02
1.301371139605623966e+03 3.162277660168379134e-02
1.375657662032289636e+03 5.623413251903491145e-02
1.468309369650483177e+03 1.000000000000000056e-01
1.576812596322428817e+03 1.778279410038922925e-01
1.709798128285601479e+03 3.162277660168379412e-01
1.859353023355150754e+03 5.623413251903490728e-01
2.037457617334694078e+03 1.000000000000000000e+00
2.279277845887788317e+03 1.778279410038922759e+00
2.551701355847136711e+03 3.162277660168379523e+00
2.815597095170389366e+03 5.623413251903491172e+00
3.074368740537349368e+03 1.000000000000000000e+01
3.333962598183359205e+03 1.778279410038922848e+01
3.603148025264308671e+03 3.162277660168379256e+01
3.888677089128892931e+03 5.623413251903490817e+01
4.197702776362243640e+03 1.000000000000000000e+02
4.533858962844641610e+03 1.778279410038922776e+02
4.913449656675924416e+03 3.162277660168379612e+02
