# Temperature (K), Pressure (bars)
8.687799905566321286e+02 5.623413251903491208e-06
9.143877353077874659e+02 1.000000000000000082e-05
9.599954843149705539e+02 1.778279410038922901e-05
1.012922396176041843e+03 3.162277660168379530e-05
1.071572350014959511e+03 5.623413251903490700e-05
1.154543133974520515e+03 1.000000000000000048e-04
1.267994573805954587e+03 1.778279410038922698e-04
1.399605636865594988e+03 3.162277660168379394e-04
1.555131579281140375e+03 5.623413251903490971e-04
1.682188235413170787e+03 1.000000000000000021e-03
1.749264266177178570e+03 1.778279410038922752e-03
1.800197460083619262e+03 3.162277660168379394e-03
1.851237032810732444e+03 5.623413251903490971e-03
1.899791790907037466e+03 1.000000000000000021e-02
1.951666407887361174e+03 1.778279410038922925e-02
2.009769042611538225e+03 3.162277660168379134e-02
2.080861606224410934e+03 5.623413251903491145e-02
2.164284315513232286e+03 1.000000000000000056e-01
2.280485598509133524e+03 1.778279410038922925e-01
2.459782257442730497e+03 3.162277660168379412e-01
2.665647858521380840e+03 5.623413251903490728e-01
2.865628797571337600e+03 1.000000000000000000e+00
3.068143256625237427e+03 1.778279410038922759e+00
3.276593490767617368e+03 3.162277660168379523e+00
3.494222395976266853e+03 5.623413251903491172e+00
3.725513157614621377e+03 1.000000000000000000e+01
3.975850787552424208e+03 1.778279410038922848e+01
4.253025703462556521e+03 3.162277660168379256e+01
4.562840108456515736e+03 5.623413251903490817e+01
4.913473778830328229e+03 1.000000000000000000e+02
5.309095011308675566e+03 1.778279410038922776e+02
5.774852665820997572e+03 3.162277660168379612e+02
