# Temperature (K), Pressure (bars)
2.082110742626069168e+03 9.999999999999999547e-07
2.084800189670684631e+03 1.778279410038922901e-06
2.087489636717003123e+03 3.162277660168379191e-06
2.092308096103820390e+03 5.623413251903491208e-06
2.100908515368731514e+03 1.000000000000000082e-05
2.115232989887642816e+03 1.778279410038922901e-05
2.137138747250602137e+03 3.162277660168379530e-05
2.167058689811862678e+03 5.623413251903490700e-05
2.202597464454123838e+03 1.000000000000000048e-04
2.240663136256799589e+03 1.778279410038922698e-04
2.279354425128021376e+03 3.162277660168379394e-04
2.316847187595625201e+03 5.623413251903490971e-04
2.351197814867708530e+03 1.000000000000000021e-03
2.381731902999955309e+03 1.778279410038922752e-03
2.409581024945378886e+03 3.162277660168379394e-03
2.436424682810223203e+03 5.623413251903490971e-03
2.464814172439841514e+03 1.000000000000000021e-02
2.497039055208449554e+03 1.778279410038922925e-02
2.538691586314787855e+03 3.162277660168379134e-02
2.590449521582570014e+03 5.623413251903491145e-02
2.666423083666289585e+03 1.000000000000000056e-01
2.790654137547154278e+03 1.778279410038922925e-01
2.946055509671416075e+03 3.162277660168379412e-01
3.112012892649594050e+03 5.623413251903490728e-01
3.291762627232236810e+03 1.000000000000000000e+00
3.487349155267577771e+03 1.778279410038922759e+00
3.700020409427586856e+03 3.162277660168379523e+00
3.932027092148565316e+03 5.623413251903491172e+00
4.187583555953134237e+03 1.000000000000000000e+01
4.472986916583787206e+03 1.778279410038922848e+01
4.796894351573021595e+03 3.162277660168379256e+01
5.173953419696934361e+03 5.623413251903490817e+01
5.617590701528942191e+03 1.000000000000000000e+02
6.149997140212462000e+03 1.778279410038922776e+02
6.804254735125857223e+03 3.162277660168379612e+02
