# Temperature (K), Pressure (bars)
1.187482398018473305e+03 5.623413251903491208e-06
1.223591782816918112e+03 1.000000000000000082e-05
1.260078014049031253e+03 1.778279410038922901e-05
1.299975865467166841e+03 3.162277660168379530e-05
1.342512765016445883e+03 5.623413251903490700e-05
1.387743017431173030e+03 1.000000000000000048e-04
1.438169344659398121e+03 1.778279410038922698e-04
1.495404611195561074e+03 3.162277660168379394e-04
1.559967839262463258e+03 5.623413251903490971e-04
1.633319406722183885e+03 1.000000000000000021e-03
1.711408005188025754e+03 1.778279410038922752e-03
1.803728612598990821e+03 3.162277660168379394e-03
1.920175468455948703e+03 5.623413251903490971e-03
2.053754357601760148e+03 1.000000000000000021e-02
2.207519226585506658e+03 1.778279410038922925e-02
2.370349117708547965e+03 3.162277660168379134e-02
2.528945110236260916e+03 5.623413251903491145e-02
2.688179760174045441e+03 1.000000000000000056e-01
2.851312902780429340e+03 1.778279410038922925e-01
3.020948587996524566e+03 3.162277660168379412e-01
3.199206822450020354e+03 5.623413251903490728e-01
3.387775032010531504e+03 1.000000000000000000e+00
3.588636441441347415e+03 1.778279410038922759e+00
3.805150736304733982e+03 3.162277660168379523e+00
4.042164093968637644e+03 5.623413251903491172e+00
4.305704644769382867e+03 1.000000000000000000e+01
4.603334093854086859e+03 1.778279410038922848e+01
4.945302589367919609e+03 3.162277660168379256e+01
5.348861279156583805e+03 5.623413251903490817e+01
5.830939804879658368e+03 1.000000000000000000e+02
6.419491384507210569e+03 1.778279410038922776e+02
7.156371694958777880e+03 3.162277660168379612e+02
