# Temperature (K), Pressure (bars)
1.310242280450985845e+03 1.000000000000000082e-05
1.349508417502285056e+03 1.778279410038922901e-05
1.388774560995216234e+03 3.162277660168379530e-05
1.452882343439415763e+03 5.623413251903490700e-05
1.521207562033362592e+03 1.000000000000000048e-04
1.574303716843983239e+03 1.778279410038922698e-04
1.619710686922710238e+03 3.162277660168379394e-04
1.665345559108327961e+03 5.623413251903490971e-04
1.711132843449224310e+03 1.000000000000000021e-03
1.757171919366610609e+03 1.778279410038922752e-03
1.807707118863698952e+03 3.162277660168379394e-03
1.862114901766479079e+03 5.623413251903490971e-03
1.917524251220624365e+03 1.000000000000000021e-02
1.976754048251136510e+03 1.778279410038922925e-02
2.041809961863244553e+03 3.162277660168379134e-02
2.119889094181915880e+03 5.623413251903491145e-02
2.210362107458101491e+03 1.000000000000000056e-01
2.337298980998230945e+03 1.778279410038922925e-01
2.528464322448771782e+03 3.162277660168379412e-01
2.735483647377448506e+03 5.623413251903490728e-01
2.929209050753607698e+03 1.000000000000000000e+00
3.127266691665910912e+03 1.778279410038922759e+00
3.333735548340550849e+03 3.162277660168379523e+00
3.551339173882871364e+03 5.623413251903491172e+00
3.784011970686049153e+03 1.000000000000000000e+01
4.036949747863382981e+03 1.778279410038922848e+01
4.317974429315264388e+03 3.162277660168379256e+01
4.633352863293827795e+03 5.623413251903490817e+01
4.991711469787930582e+03 1.000000000000000000e+02
5.397613212783424387e+03 1.778279410038922776e+02
5.877991393958306617e+03 3.162277660168379612e+02
