# Temperature (K), Pressure (bars)
8.867781150196886983e+02 3.162277660168379191e-06
9.366238499039018279e+02 5.623413251903491208e-06
9.864695915280669851e+02 1.000000000000000082e-05
1.047883307109247880e+03 1.778279410038922901e-05
1.128135651644549171e+03 3.162277660168379530e-05
1.233552300766472399e+03 5.623413251903490700e-05
1.379981773595317009e+03 1.000000000000000048e-04
1.559037705497341221e+03 1.778279410038922698e-04
1.702561509441030012e+03 3.162277660168379394e-04
1.781864677673115693e+03 5.623413251903490971e-04
1.834794731135747270e+03 1.000000000000000021e-03
1.882666207752563651e+03 1.778279410038922752e-03
1.928596623573377201e+03 3.162277660168379394e-03
1.976463998052885017e+03 5.623413251903490971e-03
2.029359211220019461e+03 1.000000000000000021e-02
2.090350872964465907e+03 1.778279410038922925e-02
2.163971241327309144e+03 3.162277660168379134e-02
2.254104167013892038e+03 5.623413251903491145e-02
2.379992140220957026e+03 1.000000000000000056e-01
2.550569532568022169e+03 1.778279410038922925e-01
2.732686529441381481e+03 3.162277660168379412e-01
2.911473289198044313e+03 5.623413251903490728e-01
3.097255128065814006e+03 1.000000000000000000e+00
3.292380357110147543e+03 1.778279410038922759e+00
3.498523151163132752e+03 3.162277660168379523e+00
3.718711388269362942e+03 5.623413251903491172e+00
3.957484700459922806e+03 1.000000000000000000e+01
4.220365139304174591e+03 1.778279410038922848e+01
4.513898843244540330e+03 3.162277660168379256e+01
4.846616618195601404e+03 5.623413251903490817e+01
5.233967704069558749e+03 1.000000000000000000e+02
5.686216024150839075e+03 1.778279410038922776e+02
6.223098836314467917e+03 3.162277660168379612e+02
