# Temperature (K), Pressure (bars)
2.100235411493339143e+03 9.999999999999999547e-07
2.131564282484594059e+03 1.778279410038922901e-06
2.162893153475849431e+03 3.162277660168379191e-06
2.198719159345123444e+03 5.623413251903491208e-06
2.237734007470734014e+03 1.000000000000000082e-05
2.278244647167014136e+03 1.778279410038922901e-05
2.319384768891221029e+03 3.162277660168379530e-05
2.358544877801395614e+03 5.623413251903490700e-05
2.393737835173888925e+03 1.000000000000000048e-04
2.425322415203378569e+03 1.778279410038922698e-04
2.454980105894852386e+03 3.162277660168379394e-04
2.484826626143207250e+03 5.623413251903490971e-04
2.517034517393964961e+03 1.000000000000000021e-03
2.553989321166290665e+03 1.778279410038922752e-03
2.597786057261040696e+03 3.162277660168379394e-03
2.651463815345651710e+03 5.623413251903490971e-03
2.716515865128988480e+03 1.000000000000000021e-02
2.798507988073249635e+03 1.778279410038922925e-02
2.907103539841563816e+03 3.162277660168379134e-02
3.039440087714311630e+03 5.623413251903491145e-02
3.190524456492271838e+03 1.000000000000000056e-01
3.363820995852639498e+03 1.778279410038922925e-01
3.563506822747101978e+03 3.162277660168379412e-01
3.793230782738689868e+03 5.623413251903490728e-01
4.058557075466522747e+03 1.000000000000000000e+00
4.372583452636899892e+03 1.778279410038922759e+00
4.731727996714983419e+03 3.162277660168379523e+00
5.199536655706418060e+03 5.623413251903491172e+00
5.850386978346065007e+03 1.000000000000000000e+01
6.803139336962220113e+03 1.778279410038922848e+01
8.226346636274744014e+03 3.162277660168379256e+01
1.000000000000000000e+04 5.623413251903490817e+01
1.000000000000000000e+04 1.000000000000000000e+02
1.000000000000000000e+04 1.778279410038922776e+02
1.000000000000000000e+04 3.162277660168379612e+02
