# Temperature (K), Pressure (bars)
1.282664453900386206e+03 1.000000000000000048e-04
1.319560441753768600e+03 1.778279410038922698e-04
1.356456432195393973e+03 3.162277660168379394e-04
1.395215594372170472e+03 5.623413251903490971e-04
1.437216631416290966e+03 1.000000000000000021e-03
1.483597821902932765e+03 1.778279410038922752e-03
1.538097275211913711e+03 3.162277660168379394e-03
1.608321788296646446e+03 5.623413251903490971e-03
1.687789520427096932e+03 1.000000000000000021e-02
1.759531082684642797e+03 1.778279410038922925e-02
1.824010537252266886e+03 3.162277660168379134e-02
1.890597384327558075e+03 5.623413251903491145e-02
1.963987360736394294e+03 1.000000000000000056e-01
2.053800384889456836e+03 1.778279410038922925e-01
2.162757954924397836e+03 3.162277660168379412e-01
2.309304607357749319e+03 5.623413251903490728e-01
2.516273227760651480e+03 1.000000000000000000e+00
2.747617251771672727e+03 1.778279410038922759e+00
2.972850990273067055e+03 3.162277660168379523e+00
3.200009119500234192e+03 5.623413251903491172e+00
3.434685456690126557e+03 1.000000000000000000e+01
3.681843008134882439e+03 1.778279410038922848e+01
3.948265441074289356e+03 3.162277660168379256e+01
4.239897999720677944e+03 5.623413251903490817e+01
4.563673280188419994e+03 1.000000000000000000e+02
4.922702870881025774e+03 1.778279410038922776e+02
5.337327207048902892e+03 3.162277660168379612e+02
