# Temperature (K), Pressure (bars)
9.416204509352490959e+02 3.162277660168379394e-04
1.000034897075161098e+03 5.623413251903490971e-04
1.058449344269908806e+03 1.000000000000000021e-03
1.114915049521367564e+03 1.778279410038922752e-03
1.170825273998330886e+03 3.162277660168379394e-03
1.228977572789709939e+03 5.623413251903490971e-03
1.292819477220911722e+03 1.000000000000000021e-02
1.366163637056053176e+03 1.778279410038922925e-02
1.458847044778747431e+03 3.162277660168379134e-02
1.585770445910693297e+03 5.623413251903491145e-02
1.769589825577184456e+03 1.000000000000000056e-01
2.011771939608066759e+03 1.778279410038922925e-01
2.265252388398198036e+03 3.162277660168379412e-01
2.500032267081772261e+03 5.623413251903490728e-01
2.721204184948185684e+03 1.000000000000000000e+00
2.934961431616778100e+03 1.778279410038922759e+00
3.147876027130232615e+03 3.162277660168379523e+00
3.366007082995398832e+03 5.623413251903491172e+00
3.595101620013276261e+03 1.000000000000000000e+01
3.840773709003733984e+03 1.778279410038922848e+01
4.110963237868609212e+03 3.162277660168379256e+01
4.410420124895759727e+03 5.623413251903490817e+01
4.746462865453756422e+03 1.000000000000000000e+02
5.122497846203802510e+03 1.778279410038922776e+02
5.561297651296472395e+03 3.162277660168379612e+02
