# Temperature (K), Pressure (bars)
1.213157634497657455e+03 3.162277660168379530e-05
1.242386994837155498e+03 5.623413251903490700e-05
1.271616358120555333e+03 1.000000000000000048e-04
1.307584869130974539e+03 1.778279410038922698e-04
1.349972763210773792e+03 3.162277660168379394e-04
1.393587082502814610e+03 5.623413251903490971e-04
1.446236598468382226e+03 1.000000000000000021e-03
1.521750562239303235e+03 1.778279410038922752e-03
1.599251383970368124e+03 3.162277660168379394e-03
1.662487153371047953e+03 5.623413251903490971e-03
1.722860602736119290e+03 1.000000000000000021e-02
1.786352827031451852e+03 1.778279410038922925e-02
1.855018843034488327e+03 3.162277660168379134e-02
1.932834975284013808e+03 5.623413251903491145e-02
2.025529773928097484e+03 1.000000000000000056e-01
2.140979112022652316e+03 1.778279410038922925e-01
2.306284261463520124e+03 3.162277660168379412e-01
2.525048276081402946e+03 5.623413251903490728e-01
2.748276166014504270e+03 1.000000000000000000e+00
2.958480978204646362e+03 1.778279410038922759e+00
3.170929943189948517e+03 3.162277660168379523e+00
3.390496297422539101e+03 5.623413251903491172e+00
3.621457710022782067e+03 1.000000000000000000e+01
3.869060437112922045e+03 1.778279410038922848e+01
4.140846043480170010e+03 3.162277660168379256e+01
4.442498165538040666e+03 5.623413251903490817e+01
4.781583403777708554e+03 1.000000000000000000e+02
5.161638718777929171e+03 1.778279410038922776e+02
5.606057442721188636e+03 3.162277660168379612e+02
