# Temperature (K), Pressure (bars)
8.349812230166436393e+02 3.162277660168379530e-05
8.949660878572512956e+02 5.623413251903490700e-05
9.549509533673567603e+02 1.000000000000000048e-04
1.008569977580710088e+03 1.778279410038922698e-04
1.059667230666050500e+03 3.162277660168379394e-04
1.112693180631360065e+03 5.623413251903490971e-04
1.162495028688461161e+03 1.000000000000000021e-03
1.202933519931456431e+03 1.778279410038922752e-03
1.236773268005785440e+03 3.162277660168379394e-03
1.269505095622416320e+03 5.623413251903490971e-03
1.304053148975799786e+03 1.000000000000000021e-02
1.342640163988970926e+03 1.778279410038922925e-02
1.386519371085051716e+03 3.162277660168379134e-02
1.429599057892371093e+03 5.623413251903491145e-02
1.486008618274214996e+03 1.000000000000000056e-01
1.591103218239266425e+03 1.778279410038922925e-01
1.767566637218402093e+03 3.162277660168379412e-01
2.012394467087623525e+03 5.623413251903490728e-01
2.282187209878624799e+03 1.000000000000000000e+00
2.542717989857157590e+03 1.778279410038922759e+00
2.792460071938169222e+03 3.162277660168379523e+00
3.034707286634460161e+03 5.623413251903491172e+00
3.276543716521649003e+03 1.000000000000000000e+01
3.525622147415866039e+03 1.778279410038922848e+01
3.790869099719639507e+03 3.162277660168379256e+01
4.077637124638471960e+03 5.623413251903490817e+01
4.392616354840261920e+03 1.000000000000000000e+02
4.738766900792802517e+03 1.778279410038922776e+02
5.134479698010743959e+03 3.162277660168379612e+02
