# Temperature (K), Pressure (bars)
2.097200639960123226e+03 3.162277660168379191e-06
2.104665789120283080e+03 5.623413251903491208e-06
2.112130938989492279e+03 1.000000000000000082e-05
2.118605289097331934e+03 1.778279410038922901e-05
2.131197656094173908e+03 3.162277660168379530e-05
2.154940438169851859e+03 5.623413251903490700e-05
2.190716885995475423e+03 1.000000000000000048e-04
2.237723293580643713e+03 1.778279410038922698e-04
2.295687415767760740e+03 3.162277660168379394e-04
2.363931501022349039e+03 5.623413251903490971e-04
2.438764398027167772e+03 1.000000000000000021e-03
2.516106742325193409e+03 1.778279410038922752e-03
2.593262250388289431e+03 3.162277660168379394e-03
2.667915847839048638e+03 5.623413251903490971e-03
2.732283266028234266e+03 1.000000000000000021e-02
2.784561964013071247e+03 1.778279410038922925e-02
2.822981333818782787e+03 3.162277660168379134e-02
2.878907795911932226e+03 5.623413251903491145e-02
2.998959644257013679e+03 1.000000000000000056e-01
3.154245581387172024e+03 1.778279410038922925e-01
3.317152988968082354e+03 3.162277660168379412e-01
3.500249651240649200e+03 5.623413251903490728e-01
3.707252519841335015e+03 1.000000000000000000e+00
3.940270758619130902e+03 1.778279410038922759e+00
4.202713179945230877e+03 3.162277660168379523e+00
4.502146418257902042e+03 5.623413251903491172e+00
4.844446820922568804e+03 1.000000000000000000e+01
5.259346303476810135e+03 1.778279410038922848e+01
5.781791168731097969e+03 3.162277660168379256e+01
6.474391913822230890e+03 5.623413251903490817e+01
7.447527534471561012e+03 1.000000000000000000e+02
8.844125559792379136e+03 1.778279410038922776e+02
1.067665488081223157e+04 3.162277660168379612e+02
