# Temperature (K), Pressure (bars)
1.005462190851808145e+03 5.623413251903490700e-05
1.056494055657938588e+03 1.000000000000000048e-04
1.107525923803682872e+03 1.778279410038922698e-04
1.160079463463572210e+03 3.162277660168379394e-04
1.214807019543470460e+03 5.623413251903490971e-04
1.269539888569551977e+03 1.000000000000000021e-03
1.324021930930506187e+03 1.778279410038922752e-03
1.381754067168709980e+03 3.162277660168379394e-03
1.453642755438288759e+03 5.623413251903490971e-03
1.539670167438686804e+03 1.000000000000000021e-02
1.632810757780188624e+03 1.778279410038922925e-02
1.739268895140626228e+03 3.162277660168379134e-02
1.844769978077569931e+03 5.623413251903491145e-02
1.941348862046363593e+03 1.000000000000000056e-01
2.046293296128864995e+03 1.778279410038922925e-01
2.182725179780594772e+03 3.162277660168379412e-01
2.374545114900926364e+03 5.623413251903490728e-01
2.600081087418838251e+03 1.000000000000000000e+00
2.823850100961260068e+03 1.778279410038922759e+00
3.044038055062350395e+03 3.162277660168379523e+00
3.267995511074700062e+03 5.623413251903491172e+00
3.500680345538307847e+03 1.000000000000000000e+01
3.747208364432672170e+03 1.778279410038922848e+01
4.014831630803878852e+03 3.162277660168379256e+01
4.309286607447060305e+03 5.623413251903490817e+01
4.637642504911190372e+03 1.000000000000000000e+02
5.002999576954244731e+03 1.778279410038922776e+02
5.426580504368445872e+03 3.162277660168379612e+02
