# Temperature (K), Pressure (bars)
9.687215988206459087e+02 3.162277660168379191e-06
1.017893950503209226e+03 5.623413251903491208e-06
1.067155227023566113e+03 1.000000000000000082e-05
1.115470750691337344e+03 1.778279410038922901e-05
1.162235989513310869e+03 3.162277660168379530e-05
1.209550013425542375e+03 5.623413251903490700e-05
1.261388290005508679e+03 1.000000000000000048e-04
1.322858125100827010e+03 1.778279410038922698e-04
1.399598096513267592e+03 3.162277660168379394e-04
1.484408135200228344e+03 5.623413251903490971e-04
1.571774329791571063e+03 1.000000000000000021e-03
1.669906900559943779e+03 1.778279410038922752e-03
1.770458086287229435e+03 3.162277660168379394e-03
1.865206834379026986e+03 5.623413251903490971e-03
1.972343226218679547e+03 1.000000000000000021e-02
2.114756379942082276e+03 1.778279410038922925e-02
2.284912693930160913e+03 3.162277660168379134e-02
2.457616587269325919e+03 5.623413251903491145e-02
2.626525708174535794e+03 1.000000000000000056e-01
2.796476643097088072e+03 1.778279410038922925e-01
2.970507028728346086e+03 3.162277660168379412e-01
3.150232429507241704e+03 5.623413251903490728e-01
3.337132865245083849e+03 1.000000000000000000e+00
3.534189897493957687e+03 1.778279410038922759e+00
3.745732123648705056e+03 3.162277660168379523e+00
3.976703840005884103e+03 5.623413251903491172e+00
4.232762552312437037e+03 1.000000000000000000e+01
4.520771670031228496e+03 1.778279410038922848e+01
4.849912754875515020e+03 3.162277660168379256e+01
5.236272689513402838e+03 5.623413251903490817e+01
5.693682806023450212e+03 1.000000000000000000e+02
6.246517657557258644e+03 1.778279410038922776e+02
6.932780625298692030e+03 3.162277660168379612e+02
