# Temperature (K), Pressure (bars)
8.898928989732562513e+02 1.000000000000000021e-03
9.254989459778710170e+02 1.778279410038922752e-03
9.611049931573794538e+02 3.162277660168379394e-03
9.971134423662925883e+02 5.623413251903490971e-03
1.034436631192364075e+03 1.000000000000000021e-02
1.072949042564551746e+03 1.778279410038922925e-02
1.112901720455195573e+03 3.162277660168379134e-02
1.156349465118232729e+03 5.623413251903491145e-02
1.206463203292746812e+03 1.000000000000000056e-01
1.267750645494686751e+03 1.778279410038922925e-01
1.342673290998510538e+03 3.162277660168379412e-01
1.444003140317538964e+03 5.623413251903490728e-01
1.612909648506274380e+03 1.000000000000000000e+00
1.860409938407584832e+03 1.778279410038922759e+00
2.142739957285446508e+03 3.162277660168379523e+00
2.431444198251147100e+03 5.623413251903491172e+00
2.719993658160445193e+03 1.000000000000000000e+01
3.004279463864337686e+03 1.778279410038922848e+01
3.289923085175371398e+03 3.162277660168379256e+01
3.582543370491893256e+03 5.623413251903490817e+01
3.890188442404380567e+03 1.000000000000000000e+02
4.217575141885037738e+03 1.778279410038922776e+02
4.579563991088242801e+03 3.162277660168379612e+02
