# Temperature (K), Pressure (bars)
2.385667114423596558e+03 9.999999999999999547e-07
2.402682306734587200e+03 1.778279410038922901e-06
2.419697499045577842e+03 3.162277660168379191e-06
2.448305391191004219e+03 5.623413251903491208e-06
2.479847390561137672e+03 1.000000000000000082e-05
2.512247784162232165e+03 1.778279410038922901e-05
2.547105675634617910e+03 3.162277660168379530e-05
2.583391317200008871e+03 5.623413251903490700e-05
2.621043870921675989e+03 1.000000000000000048e-04
2.658550358582265289e+03 1.778279410038922698e-04
2.693424814529682408e+03 3.162277660168379394e-04
2.722833355378942997e+03 5.623413251903490971e-04
2.746044433887806917e+03 1.000000000000000021e-03
2.767113713564998307e+03 1.778279410038922752e-03
2.794072751122323098e+03 3.162277660168379394e-03
2.834063878516512432e+03 5.623413251903490971e-03
2.890667659758456466e+03 1.000000000000000021e-02
2.964909173388510681e+03 1.778279410038922925e-02
3.058009712448277241e+03 3.162277660168379134e-02
3.178010501304635000e+03 5.623413251903491145e-02
3.331037914159468073e+03 1.000000000000000056e-01
3.513915193917890065e+03 1.778279410038922925e-01
3.719683833420113842e+03 3.162277660168379412e-01
3.964224699881349807e+03 5.623413251903490728e-01
4.244078832214941940e+03 1.000000000000000000e+00
4.595153752415259078e+03 1.778279410038922759e+00
5.069426250134389193e+03 3.162277660168379523e+00
5.779167488412133025e+03 5.623413251903491172e+00
6.906609819026654804e+03 1.000000000000000000e+01
8.488818820161563053e+03 1.778279410038922848e+01
1.000000000000000000e+04 3.162277660168379256e+01
1.000000000000000000e+04 5.623413251903490817e+01
1.000000000000000000e+04 1.000000000000000000e+02
1.000000000000000000e+04 1.778279410038922776e+02
1.000000000000000000e+04 3.162277660168379612e+02
