# Temperature (K), Pressure (bars)
8.673370697172508699e+02 1.778279410038922901e-05
9.136996769514536254e+02 3.162277660168379530e-05
9.600622831167191862e+02 5.623413251903490700e-05
1.006463330219059458e+03 1.000000000000000048e-04
1.057463936189876904e+03 1.778279410038922698e-04
1.111149704957839958e+03 3.162277660168379394e-04
1.160008388237232793e+03 5.623413251903490971e-04
1.201850020304418194e+03 1.000000000000000021e-03
1.238400775302020065e+03 1.778279410038922752e-03
1.274066305969941141e+03 3.162277660168379394e-03
1.310819522260865824e+03 5.623413251903490971e-03
1.356905327683297173e+03 1.000000000000000021e-02
1.404976808625148351e+03 1.778279410038922925e-02
1.483652264494675137e+03 3.162277660168379134e-02
1.662740526817239015e+03 5.623413251903491145e-02
1.908812259324348815e+03 1.000000000000000056e-01
2.155963960899221547e+03 1.778279410038922925e-01
2.391274831757763877e+03 3.162277660168379412e-01
2.612006835758467332e+03 5.623413251903490728e-01
2.822752096922620694e+03 1.000000000000000000e+00
3.029279651517806542e+03 1.778279410038922759e+00
3.237505600683175544e+03 3.162277660168379523e+00
3.453371944648884892e+03 5.623413251903491172e+00
3.682422209396181643e+03 1.000000000000000000e+01
3.930111359866097246e+03 1.778279410038922848e+01
4.204463003368044156e+03 3.162277660168379256e+01
4.510334508478114003e+03 5.623413251903490817e+01
4.855420625014788129e+03 1.000000000000000000e+02
5.243229394590117408e+03 1.778279410038922776e+02
5.698095346055506525e+03 3.162277660168379612e+02
