# Temperature (K), Pressure (bars)
2.354527770703107308e+03 9.999999999999999547e-07
2.377767082719315113e+03 1.778279410038922901e-06
2.401006394735522008e+03 3.162277660168379191e-06
2.428766065941222223e+03 5.623413251903491208e-06
2.459987510868482332e+03 1.000000000000000082e-05
2.493019080870711605e+03 1.778279410038922901e-05
2.526938804624755448e+03 3.162277660168379530e-05
2.561076873240164332e+03 5.623413251903490700e-05
2.595127452662979977e+03 1.000000000000000048e-04
2.627121701358757946e+03 1.778279410038922698e-04
2.651716109878547741e+03 3.162277660168379394e-04
2.663963225892472110e+03 5.623413251903490971e-04
2.670241035868209565e+03 1.000000000000000021e-03
2.687022071274465361e+03 1.778279410038922752e-03
2.724906578910662574e+03 3.162277660168379394e-03
2.782439388054720894e+03 5.623413251903490971e-03
2.855920851646909341e+03 1.000000000000000021e-02
2.939484266780201779e+03 1.778279410038922925e-02
3.034796981633499399e+03 3.162277660168379134e-02
3.158024289951981245e+03 5.623413251903491145e-02
3.312820472284905463e+03 1.000000000000000056e-01
3.496928523222532021e+03 1.778279410038922925e-01
3.702664784375280306e+03 3.162277660168379412e-01
3.946729927801922713e+03 5.623413251903490728e-01
4.233771692573276596e+03 1.000000000000000000e+00
4.579753358305451911e+03 1.778279410038922759e+00
5.043847170423282478e+03 3.162277660168379523e+00
5.735455851814152084e+03 5.623413251903491172e+00
6.837669816517042818e+03 1.000000000000000000e+01
8.398094584584041513e+03 1.778279410038922848e+01
1.000000000000000000e+04 3.162277660168379256e+01
1.000000000000000000e+04 5.623413251903490817e+01
1.000000000000000000e+04 1.000000000000000000e+02
1.000000000000000000e+04 1.778279410038922776e+02
1.000000000000000000e+04 3.162277660168379612e+02
