# Temperature (K), Pressure (bars)
8.951693270519391490e+02 5.623413251903490971e-04
9.354745662116689573e+02 1.000000000000000021e-03
9.757798063551558698e+02 1.778279410038922752e-03
1.018174200404216094e+03 3.162277660168379394e-03
1.062111330691612011e+03 5.623413251903490971e-03
1.106690566745276556e+03 1.000000000000000021e-02
1.153073441894428015e+03 1.778279410038922925e-02
1.202366061102614140e+03 3.162277660168379134e-02
1.260204828797289565e+03 5.623413251903491145e-02
1.327271268448661431e+03 1.000000000000000056e-01
1.436246761765543397e+03 1.778279410038922925e-01
1.634804678725932945e+03 3.162277660168379412e-01
1.892207108618540133e+03 5.623413251903490728e-01
2.162803600552676471e+03 1.000000000000000000e+00
2.433008084521132787e+03 1.778279410038922759e+00
2.693300603293452241e+03 3.162277660168379523e+00
2.944612075875941628e+03 5.623413251903491172e+00
3.192739982903324290e+03 1.000000000000000000e+01
3.445296833801233333e+03 1.778279410038922848e+01
3.711533177612678628e+03 3.162277660168379256e+01
3.997190270321174921e+03 5.623413251903490817e+01
4.309072883951334006e+03 1.000000000000000000e+02
4.650436492699684095e+03 1.778279410038922776e+02
5.038676553147318373e+03 3.162277660168379612e+02
