# Temperature (K), Pressure (bars)
9.715956814897025424e+02 1.000000000000000048e-04
1.015772378226441560e+03 1.778279410038922698e-04
1.059949078133228113e+03 3.162277660168379394e-04
1.104956360243104200e+03 5.623413251903490971e-04
1.148248297475921390e+03 1.000000000000000021e-03
1.187780032278055387e+03 1.778279410038922752e-03
1.223920474583121631e+03 3.162277660168379394e-03
1.257551908224438421e+03 5.623413251903490971e-03
1.288648567261112248e+03 1.000000000000000021e-02
1.318062221429928286e+03 1.778279410038922925e-02
1.347658538949089461e+03 3.162277660168379134e-02
1.383237629886227751e+03 5.623413251903491145e-02
1.439144091704652055e+03 1.000000000000000056e-01
1.518625392119148955e+03 1.778279410038922925e-01
1.617276786570445211e+03 3.162277660168379412e-01
1.736077049165282006e+03 5.623413251903490728e-01
1.869574689917940987e+03 1.000000000000000000e+00
2.012464151115583036e+03 1.778279410038922759e+00
2.209741604998556340e+03 3.162277660168379523e+00
2.492481635057253698e+03 5.623413251903491172e+00
2.793447106898054699e+03 1.000000000000000000e+01
3.074434675715101548e+03 1.778279410038922848e+01
3.356034634223717603e+03 3.162277660168379256e+01
3.646466272071557341e+03 5.623413251903490817e+01
3.953644239640534579e+03 1.000000000000000000e+02
4.282048134429906895e+03 1.778279410038922776e+02
4.646742907160513823e+03 3.162277660168379612e+02
