# Temperature (K), Pressure (bars)
1.592775442023087180e+03 9.999999999999999547e-07
1.638319322361804097e+03 1.778279410038922901e-06
1.683863202703280876e+03 3.162277660168379191e-06
1.732944569743389366e+03 5.623413251903491208e-06
1.784358662195203578e+03 1.000000000000000082e-05
1.836317470932234755e+03 1.778279410038922901e-05
1.886423530482411024e+03 3.162277660168379530e-05
1.933911006411677590e+03 5.623413251903490700e-05
1.980872714158631652e+03 1.000000000000000048e-04
2.029827574126643867e+03 1.778279410038922698e-04
2.081522854479939269e+03 3.162277660168379394e-04
2.137192918505292710e+03 5.623413251903490971e-04
2.198017382768528478e+03 1.000000000000000021e-03
2.269451665415746447e+03 1.778279410038922752e-03
2.360907836820783814e+03 3.162277660168379394e-03
2.469852612583491918e+03 5.623413251903490971e-03
2.588996382117396024e+03 1.000000000000000021e-02
2.717300239790125943e+03 1.778279410038922925e-02
2.855650394979155408e+03 3.162277660168379134e-02
3.005875301632752780e+03 5.623413251903491145e-02
3.170793026714209645e+03 1.000000000000000056e-01
3.353692880638187034e+03 1.778279410038922925e-01
3.557549158577357048e+03 3.162277660168379412e-01
3.785415004221482832e+03 5.623413251903490728e-01
4.043978127146164297e+03 1.000000000000000000e+00
4.346491765002087050e+03 1.778279410038922759e+00
4.695407540233852160e+03 3.162277660168379523e+00
5.145995121062125691e+03 5.623413251903491172e+00
5.767449504901389446e+03 1.000000000000000000e+01
6.669662476830813830e+03 1.778279410038922848e+01
8.020763557144296101e+03 3.162277660168379256e+01
9.810427982090606747e+03 5.623413251903490817e+01
1.194371580576971610e+04 1.000000000000000000e+02
1.453627449120933852e+04 1.778279410038922776e+02
1.762607432843630522e+04 3.162277660168379612e+02
