# Temperature (K), Pressure (bars)
1.556718336574617524e+03 9.999999999999999547e-07
1.583729634829049246e+03 1.778279410038922901e-06
1.610740933083480741e+03 3.162277660168379191e-06
1.643019385263288314e+03 5.623413251903491208e-06
1.682746015312150348e+03 1.000000000000000082e-05
1.730866631262407736e+03 1.778279410038922901e-05
1.786090463605366040e+03 3.162277660168379530e-05
1.847736019605788670e+03 5.623413251903490700e-05
1.914810579378157172e+03 1.000000000000000048e-04
1.986159549529062133e+03 1.778279410038922698e-04
2.062086737169239314e+03 3.162277660168379394e-04
2.145890479518586289e+03 5.623413251903490971e-04
2.243697069596197252e+03 1.000000000000000021e-03
2.354665721924341597e+03 1.778279410038922752e-03
2.473666958567700931e+03 3.162277660168379394e-03
2.599616726220484907e+03 5.623413251903490971e-03
2.733670546525010650e+03 1.000000000000000021e-02
2.877499071404889492e+03 1.778279410038922925e-02
3.033488743169184090e+03 3.162277660168379134e-02
3.205600115570320213e+03 5.623413251903491145e-02
3.402817013895825767e+03 1.000000000000000056e-01
3.604457547840426741e+03 1.778279410038922925e-01
3.841324680053122393e+03 3.162277660168379412e-01
4.106696448533204602e+03 5.623413251903490728e-01
4.442331011480342568e+03 1.000000000000000000e+00
4.904523799673746908e+03 1.778279410038922759e+00
5.615300796386723960e+03 3.162277660168379523e+00
6.705785831708382830e+03 5.623413251903491172e+00
8.253596447606352740e+03 1.000000000000000000e+01
1.000000000000000000e+04 1.778279410038922848e+01
1.000000000000000000e+04 3.162277660168379256e+01
1.000000000000000000e+04 5.623413251903490817e+01
1.000000000000000000e+04 1.000000000000000000e+02
1.000000000000000000e+04 1.778279410038922776e+02
1.000000000000000000e+04 3.162277660168379612e+02
