# Temperature (K), Pressure (bars)
1.850060669754706851e+03 9.999999999999999547e-07
1.872104044952707682e+03 1.778279410038922901e-06
1.894147420151629376e+03 3.162277660168379191e-06
1.922529608380121772e+03 5.623413251903491208e-06
1.956948814058539483e+03 1.000000000000000082e-05
1.997532371975072010e+03 1.778279410038922901e-05
2.044369205381766733e+03 3.162277660168379530e-05
2.095947585480487305e+03 5.623413251903490700e-05
2.151612205360704138e+03 1.000000000000000048e-04
2.211698981064248983e+03 1.778279410038922698e-04
2.277576777896184467e+03 3.162277660168379394e-04
2.351233114965121331e+03 5.623413251903490971e-04
2.434969832188759938e+03 1.000000000000000021e-03
2.529851269394986957e+03 1.778279410038922752e-03
2.634574925102926500e+03 3.162277660168379394e-03
2.748111411040854819e+03 5.623413251903490971e-03
2.871455576776100315e+03 1.000000000000000021e-02
3.007530969736304542e+03 1.778279410038922925e-02
3.161776194750028026e+03 3.162277660168379134e-02
3.344094294751108464e+03 5.623413251903491145e-02
3.585684460981883603e+03 1.000000000000000056e-01
3.819807850993488046e+03 1.778279410038922925e-01
4.118436061355440870e+03 3.162277660168379412e-01
4.541831419303370240e+03 5.623413251903490728e-01
5.239000807998723758e+03 1.000000000000000000e+00
6.381197770550435962e+03 1.778279410038922759e+00
7.904185895386453012e+03 3.162277660168379523e+00
9.559278124023929195e+03 5.623413251903491172e+00
1.133813490482007910e+04 1.000000000000000000e+01
1.351401350508473297e+04 1.778279410038922848e+01
1.626144788719616554e+04 3.162277660168379256e+01
1.970698034263688896e+04 5.623413251903490817e+01
2.398056418578021839e+04 1.000000000000000000e+02
2.919641800929557576e+04 1.778279410038922776e+02
3.542039585017925128e+04 3.162277660168379612e+02
