# Temperature (K), Pressure (bars)
8.896816749884503679e+02 5.623413251903490971e-04
9.279840327473883690e+02 1.000000000000000021e-03
9.662863913944621572e+02 1.778279410038922752e-03
1.006476815127318218e+03 3.162277660168379394e-03
1.048594681235864982e+03 5.623413251903490971e-03
1.091783008030160772e+03 1.000000000000000021e-02
1.136870190545526611e+03 1.778279410038922925e-02
1.185330770017796794e+03 3.162277660168379134e-02
1.242096341652935735e+03 5.623413251903491145e-02
1.310025207388788431e+03 1.000000000000000056e-01
1.409472192285800929e+03 1.778279410038922925e-01
1.582350813627683010e+03 3.162277660168379412e-01
1.825825752671591999e+03 5.623413251903490728e-01
2.098780795555329405e+03 1.000000000000000000e+00
2.373883695035723576e+03 1.778279410038922759e+00
2.640157061292442904e+03 3.162277660168379523e+00
2.896822759672916618e+03 5.623413251903491172e+00
3.148840272254017691e+03 1.000000000000000000e+01
3.403702263168962872e+03 1.778279410038922848e+01
3.670853727480560792e+03 3.162277660168379256e+01
3.956203183275520587e+03 5.623413251903490817e+01
4.266643617128466758e+03 1.000000000000000000e+02
4.605420361357211732e+03 1.778279410038922776e+02
4.989700408558512208e+03 3.162277660168379612e+02
