# Temperature (K), Pressure (bars)
9.196000070843078902e+02 1.778279410038922901e-05
9.607525338979239677e+02 3.162277660168379530e-05
1.001905061512287375e+03 5.623413251903490700e-05
1.044000752912443659e+03 1.000000000000000048e-04
1.089223219851131262e+03 1.778279410038922698e-04
1.137938269092148403e+03 3.162277660168379394e-04
1.189557048121691423e+03 5.623413251903490971e-04
1.244019916644226214e+03 1.000000000000000021e-03
1.302336448165545335e+03 1.778279410038922752e-03
1.368284188121658190e+03 3.162277660168379394e-03
1.455586444601420453e+03 5.623413251903490971e-03
1.593494630533216196e+03 1.000000000000000021e-02
1.793217605981495581e+03 1.778279410038922925e-02
2.020971380688265754e+03 3.162277660168379134e-02
2.239454859780513743e+03 5.623413251903491145e-02
2.440401687109088925e+03 1.000000000000000056e-01
2.629692612928738072e+03 1.778279410038922925e-01
2.813666468867257208e+03 3.162277660168379412e-01
2.996841905033452349e+03 5.623413251903490728e-01
3.182758411710185555e+03 1.000000000000000000e+00
3.375437368594091822e+03 1.778279410038922759e+00
3.579480837876420082e+03 3.162277660168379523e+00
3.799587884586118889e+03 5.623413251903491172e+00
4.040657706894633520e+03 1.000000000000000000e+01
4.308288584311252635e+03 1.778279410038922848e+01
4.609374606783566378e+03 3.162277660168379256e+01
4.953232202152711579e+03 5.623413251903490817e+01
5.356813022718331013e+03 1.000000000000000000e+02
5.831791984410365330e+03 1.778279410038922776e+02
6.401246736634430818e+03 3.162277660168379612e+02
