# Temperature (K), Pressure (bars)
1.923339388337415585e+03 3.162277660168379191e-06
1.925231502705938055e+03 5.623413251903491208e-06
1.927123617202000787e+03 1.000000000000000082e-05
1.937986682469786501e+03 1.778279410038922901e-05
1.957650863695299449e+03 3.162277660168379530e-05
1.985559108028611490e+03 5.623413251903490700e-05
2.024054017120826757e+03 1.000000000000000048e-04
2.070635384792333298e+03 1.778279410038922698e-04
2.121344862639881285e+03 3.162277660168379394e-04
2.174380485115484589e+03 5.623413251903490971e-04
2.226884802911014049e+03 1.000000000000000021e-03
2.276909766931795730e+03 1.778279410038922752e-03
2.323876091578196338e+03 3.162277660168379394e-03
2.366904934818772745e+03 5.623413251903490971e-03
2.408914238651578671e+03 1.000000000000000021e-02
2.453976720835358719e+03 1.778279410038922925e-02
2.511703032574937879e+03 3.162277660168379134e-02
2.605588490352091867e+03 5.623413251903491145e-02
2.738529056296722501e+03 1.000000000000000056e-01
2.886829320520536839e+03 1.778279410038922925e-01
3.043015025039416287e+03 3.162277660168379412e-01
3.213274155975164376e+03 5.623413251903490728e-01
3.399745747680081877e+03 1.000000000000000000e+00
3.602893834280336705e+03 1.778279410038922759e+00
3.823803114869336241e+03 3.162277660168379523e+00
4.065919587012569536e+03 5.623413251903491172e+00
4.335104228890073500e+03 1.000000000000000000e+01
4.639405011587859917e+03 1.778279410038922848e+01
4.989810354140012350e+03 3.162277660168379256e+01
5.403862306101975264e+03 5.623413251903490817e+01
5.901960628759004976e+03 1.000000000000000000e+02
6.517649832677378981e+03 1.778279410038922776e+02
7.303419092445624301e+03 3.162277660168379612e+02
