# Temperature (K), Pressure (bars)
1.536413521054168314e+03 9.999999999999999547e-07
1.564341637289615164e+03 1.778279410038922901e-06
1.592269753525062697e+03 3.162277660168379191e-06
1.625678145696537740e+03 5.623413251903491208e-06
1.666027739041328914e+03 1.000000000000000082e-05
1.713623938224213589e+03 1.778279410038922901e-05
1.767360453064268313e+03 3.162277660168379530e-05
1.827118504264778949e+03 5.623413251903490700e-05
1.891508107897640684e+03 1.000000000000000048e-04
1.959753378398938139e+03 1.778279410038922698e-04
2.032931982548834640e+03 3.162277660168379394e-04
2.113802853684721867e+03 5.623413251903490971e-04
2.208904591877151688e+03 1.000000000000000021e-03
2.318772102766213720e+03 1.778279410038922752e-03
2.437431813642759153e+03 3.162277660168379394e-03
2.562256718016903505e+03 5.623413251903490971e-03
2.694107785761997093e+03 1.000000000000000021e-02
2.834729348151170598e+03 1.778279410038922925e-02
2.986794445078705849e+03 3.162277660168379134e-02
3.154322347548660673e+03 5.623413251903491145e-02
3.346231705980570950e+03 1.000000000000000056e-01
3.537218400410160939e+03 1.778279410038922925e-01
3.756503577577704618e+03 3.162277660168379412e-01
4.013279631200474796e+03 5.623413251903490728e-01
4.310852586167678965e+03 1.000000000000000000e+00
4.695215600978453040e+03 1.778279410038922759e+00
5.240328722288859353e+03 3.162277660168379523e+00
6.094218059247597921e+03 5.623413251903491172e+00
7.414616257430443511e+03 1.000000000000000000e+01
9.115564696366842327e+03 1.778279410038922848e+01
1.000000000000000000e+04 3.162277660168379256e+01
1.000000000000000000e+04 5.623413251903490817e+01
1.000000000000000000e+04 1.000000000000000000e+02
1.000000000000000000e+04 1.778279410038922776e+02
1.000000000000000000e+04 3.162277660168379612e+02
