# Temperature (K), Pressure (bars)
1.105173885249718296e+03 3.162277660168379394e-04
1.140495681860813875e+03 5.623413251903490971e-04
1.175817480995975529e+03 1.000000000000000021e-03
1.215248606610827210e+03 1.778279410038922752e-03
1.258127377581708970e+03 3.162277660168379394e-03
1.304009318166130925e+03 5.623413251903490971e-03
1.354179814761073430e+03 1.000000000000000021e-02
1.412135054845962486e+03 1.778279410038922925e-02
1.476996034877180364e+03 3.162277660168379134e-02
1.547129368972945031e+03 5.623413251903491145e-02
1.629572263389419277e+03 1.000000000000000056e-01
1.727126049734101343e+03 1.778279410038922925e-01
1.831396115890824376e+03 3.162277660168379412e-01
1.950173459377074096e+03 5.623413251903490728e-01
2.089256215818628334e+03 1.000000000000000000e+00
2.276501200244219945e+03 1.778279410038922759e+00
2.541541796072991929e+03 3.162277660168379523e+00
2.822889333956267365e+03 5.623413251903491172e+00
3.082313473477066509e+03 1.000000000000000000e+01
3.341735161686738593e+03 1.778279410038922848e+01
3.610769948622662923e+03 3.162277660168379256e+01
3.896247958989395556e+03 5.623413251903490817e+01
4.205333573623779557e+03 1.000000000000000000e+02
4.541333858830137615e+03 1.778279410038922776e+02
4.921223704708471814e+03 3.162277660168379612e+02
