# Temperature (K), Pressure (bars)
7.927655714377646063e+02 3.162277660168379394e-04
8.412832816184650255e+02 5.623413251903490971e-04
8.898009929800343798e+02 1.000000000000000021e-03
9.368671777978187265e+02 1.778279410038922752e-03
9.834206335109062138e+02 3.162277660168379394e-03
1.031545225385870935e+03 5.623413251903490971e-03
1.083770038740210794e+03 1.000000000000000021e-02
1.144037952542655148e+03 1.778279410038922925e-02
1.217151261648005402e+03 3.162277660168379134e-02
1.310418737013388863e+03 5.623413251903491145e-02
1.433821130433990902e+03 1.000000000000000056e-01
1.612085857850276852e+03 1.778279410038922925e-01
1.854957229059758902e+03 3.162277660168379412e-01
2.123646227709631603e+03 5.623413251903490728e-01
2.386020970076478989e+03 1.000000000000000000e+00
2.636519282031646981e+03 1.778279410038922759e+00
2.875482185569157082e+03 3.162277660168379523e+00
3.109415605251758734e+03 5.623413251903491172e+00
3.345941438431982988e+03 1.000000000000000000e+01
3.592210806580067583e+03 1.778279410038922848e+01
3.856835205549799866e+03 3.162277660168379256e+01
4.144548051808688797e+03 5.623413251903490817e+01
4.461956061970671726e+03 1.000000000000000000e+02
4.812095289029470223e+03 1.778279410038922776e+02
5.213897673624190247e+03 3.162277660168379612e+02
