# Temperature (K), Pressure (bars)
1.893088739826290293e+03 9.999999999999999547e-07
1.949832657693753163e+03 1.778279410038922901e-06
2.006576575561216032e+03 3.162277660168379191e-06
2.061470428670297679e+03 5.623413251903491208e-06
2.111979098642245845e+03 1.000000000000000082e-05
2.156438614951231557e+03 1.778279410038922901e-05
2.194880922549933075e+03 3.162277660168379530e-05
2.228621043717856992e+03 5.623413251903490700e-05
2.259807792813481683e+03 1.000000000000000048e-04
2.290743654293885811e+03 1.778279410038922698e-04
2.323801003941549425e+03 3.162277660168379394e-04
2.361184206688746599e+03 5.623413251903490971e-04
2.404949280054441715e+03 1.000000000000000021e-03
2.456196378376846951e+03 1.778279410038922752e-03
2.515100201229311551e+03 3.162277660168379394e-03
2.577477663122649574e+03 5.623413251903490971e-03
2.643957061568879908e+03 1.000000000000000021e-02
2.732297332729585833e+03 1.778279410038922925e-02
2.852126508150109657e+03 3.162277660168379134e-02
2.995811108190943287e+03 5.623413251903491145e-02
3.160256815668896252e+03 1.000000000000000056e-01
3.346823080090650819e+03 1.778279410038922925e-01
3.555197540145863968e+03 3.162277660168379412e-01
3.786704325237355533e+03 5.623413251903490728e-01
4.047965601920870540e+03 1.000000000000000000e+00
4.352386556854260562e+03 1.778279410038922759e+00
4.702982787669892787e+03 3.162277660168379523e+00
5.156467008057697967e+03 5.623413251903491172e+00
5.789486190922726564e+03 1.000000000000000000e+01
6.747570643322867909e+03 1.778279410038922848e+01
8.184699718380512422e+03 3.162277660168379256e+01
1.001001465659227506e+04 5.623413251903490817e+01
1.217932110254025611e+04 1.000000000000000000e+02
1.482701560952775617e+04 1.778279410038922776e+02
1.798669271944215870e+04 3.162277660168379612e+02
