# Temperature (K), Pressure (bars)
2.045262606173040922e+03 9.999999999999999547e-07
2.066015982161713509e+03 1.778279410038922901e-06
2.086769358150386324e+03 3.162277660168379191e-06
2.113020393864688231e+03 5.623413251903491208e-06
2.143133936464346334e+03 1.000000000000000082e-05
2.174213110503202643e+03 1.778279410038922901e-05
2.203829657380616482e+03 3.162277660168379530e-05
2.231295562022412014e+03 5.623413251903490700e-05
2.258573148037763985e+03 1.000000000000000048e-04
2.288388401735910975e+03 1.778279410038922698e-04
2.323221221958710885e+03 3.162277660168379394e-04
2.364670660604171189e+03 5.623413251903490971e-04
2.414151729542585599e+03 1.000000000000000021e-03
2.472871323269153436e+03 1.778279410038922752e-03
2.542336989754896877e+03 3.162277660168379394e-03
2.622920501870230510e+03 5.623413251903490971e-03
2.716557545453885723e+03 1.000000000000000021e-02
2.827476118141061761e+03 1.778279410038922925e-02
2.955258452191355900e+03 3.162277660168379134e-02
3.100218152996831122e+03 5.623413251903491145e-02
3.267001942908657384e+03 1.000000000000000056e-01
3.463174705536628153e+03 1.778279410038922925e-01
3.666519602585432040e+03 3.162277660168379412e-01
3.900692763604117772e+03 5.623413251903490728e-01
4.175075152673223783e+03 1.000000000000000000e+00
4.496372064023174062e+03 1.778279410038922759e+00
4.911410363354453693e+03 3.162277660168379523e+00
5.494811007240879917e+03 5.623413251903491172e+00
6.396754176683200058e+03 1.000000000000000000e+01
7.772833637373359124e+03 1.778279410038922848e+01
9.532584872552468369e+03 3.162277660168379256e+01
1.000000000000000000e+04 5.623413251903490817e+01
1.000000000000000000e+04 1.000000000000000000e+02
1.000000000000000000e+04 1.778279410038922776e+02
1.000000000000000000e+04 3.162277660168379612e+02
