# Temperature (K), Pressure (bars)
1.083016674459840488e+03 1.000000000000000048e-04
1.125195675581468549e+03 1.778279410038922698e-04
1.167374678664865542e+03 3.162277660168379394e-04
1.212117264568562632e+03 5.623413251903490971e-04
1.259953267594986983e+03 1.000000000000000021e-03
1.312208759864820422e+03 1.778279410038922752e-03
1.372216643607421702e+03 3.162277660168379394e-03
1.438573658704816125e+03 5.623413251903490971e-03
1.510815177977423218e+03 1.000000000000000021e-02
1.595599274416895696e+03 1.778279410038922925e-02
1.685158588033722253e+03 3.162277660168379134e-02
1.770994067793725208e+03 5.623413251903491145e-02
1.868145790386828821e+03 1.000000000000000056e-01
1.983947162305446682e+03 1.778279410038922925e-01
2.137925392084170653e+03 3.162277660168379412e-01
2.353517345786344322e+03 5.623413251903490728e-01
2.590245615688723774e+03 1.000000000000000000e+00
2.814954262879970429e+03 1.778279410038922759e+00
3.036692900793928857e+03 3.162277660168379523e+00
3.261336467462425389e+03 5.623413251903491172e+00
3.493974124719208248e+03 1.000000000000000000e+01
3.740164678546675077e+03 1.778279410038922848e+01
4.007644440122777723e+03 3.162277660168379256e+01
4.301879260720665116e+03 5.623413251903490817e+01
4.629916184500542840e+03 1.000000000000000000e+02
4.995276968596618644e+03 1.778279410038922776e+02
5.418469932597904517e+03 3.162277660168379612e+02
