# Temperature (K), Pressure (bars)
8.969940052565782480e+02 1.000000000000000048e-04
9.530442364206153343e+02 1.778279410038922698e-04
1.009094467191302670e+03 3.162277660168379394e-04
1.061534134620305167e+03 5.623413251903490971e-04
1.114719024861818752e+03 1.000000000000000021e-03
1.169117212946733389e+03 1.778279410038922752e-03
1.220009024625281199e+03 3.162277660168379394e-03
1.261266090072174848e+03 5.623413251903490971e-03
1.295641267264145426e+03 1.000000000000000021e-02
1.330426381840263730e+03 1.778279410038922925e-02
1.369810281318848183e+03 3.162277660168379134e-02
1.418574729836235747e+03 5.623413251903491145e-02
1.472618325344174991e+03 1.000000000000000056e-01
1.537013633938640169e+03 1.778279410038922925e-01
1.644608219812332209e+03 3.162277660168379412e-01
1.832723967332700795e+03 5.623413251903490728e-01
2.093869337194839773e+03 1.000000000000000000e+00
2.372453048790387129e+03 1.778279410038922759e+00
2.638568428385755396e+03 3.162277660168379523e+00
2.895471847745700416e+03 5.623413251903491172e+00
3.147642101079213262e+03 1.000000000000000000e+01
3.402561178466643923e+03 1.778279410038922848e+01
3.669675136848502007e+03 3.162277660168379256e+01
3.955032879719810353e+03 5.623413251903490817e+01
4.265530838082117953e+03 1.000000000000000000e+02
4.604384799860645217e+03 1.778279410038922776e+02
4.988732789169324860e+03 3.162277660168379612e+02
