# Temperature (K), Pressure (bars)
1.709749848093856144e+03 9.999999999999999547e-07
1.717093333771088055e+03 1.778279410038922901e-06
1.724436819473571632e+03 3.162277660168379191e-06
1.736388285815453173e+03 5.623413251903491208e-06
1.753219587037182009e+03 1.000000000000000082e-05
1.774687136134720276e+03 1.778279410038922901e-05
1.803403068495297248e+03 3.162277660168379530e-05
1.837807498972811572e+03 5.623413251903490700e-05
1.875353120347343065e+03 1.000000000000000048e-04
1.916832297584529897e+03 1.778279410038922698e-04
1.961791227582932152e+03 3.162277660168379394e-04
2.010222922900176400e+03 5.623413251903490971e-04
2.062875399204666792e+03 1.000000000000000021e-03
2.119574303773670181e+03 1.778279410038922752e-03
2.181930728985657424e+03 3.162277660168379394e-03
2.251228793993423096e+03 5.623413251903490971e-03
2.339459468602905872e+03 1.000000000000000021e-02
2.457509666218532402e+03 1.778279410038922925e-02
2.590003928138550236e+03 3.162277660168379134e-02
2.726727075570192028e+03 5.623413251903491145e-02
2.872362450513400290e+03 1.000000000000000056e-01
3.029222749758574082e+03 1.778279410038922925e-01
3.199510279418245318e+03 3.162277660168379412e-01
3.384360452466670722e+03 5.623413251903490728e-01
3.584103743378286708e+03 1.000000000000000000e+00
3.800506586426585272e+03 1.778279410038922759e+00
4.038016709630227524e+03 3.162277660168379523e+00
4.303382385011876977e+03 5.623413251903491172e+00
4.605723273986805907e+03 1.000000000000000000e+01
4.957869720874845370e+03 1.778279410038922848e+01
5.379326651776359540e+03 3.162277660168379256e+01
5.898954526953450113e+03 5.623413251903490817e+01
6.564743852608081397e+03 1.000000000000000000e+02
7.457935215104504096e+03 1.778279410038922776e+02
8.701089981644394356e+03 3.162277660168379612e+02
