# Temperature (K), Pressure (bars)
1.007204871355979094e+03 5.623413251903491208e-06
1.058748436460626408e+03 1.000000000000000082e-05
1.110292011674274590e+03 1.778279410038922901e-05
1.182305848779134067e+03 3.162277660168379530e-05
1.285777998407842460e+03 5.623413251903490700e-05
1.421373202936908910e+03 1.000000000000000048e-04
1.571636383003357878e+03 1.778279410038922698e-04
1.689958416975328646e+03 3.162277660168379394e-04
1.764001780018025556e+03 5.623413251903490971e-04
1.819262331830236008e+03 1.000000000000000021e-03
1.866195700636755873e+03 1.778279410038922752e-03
1.907342030762415106e+03 3.162277660168379394e-03
1.946535953531255927e+03 5.623413251903490971e-03
1.986671187248122351e+03 1.000000000000000021e-02
2.030681493703964861e+03 1.778279410038922925e-02
2.081651051222422211e+03 3.162277660168379134e-02
2.142933156877733836e+03 5.623413251903491145e-02
2.218050300432414588e+03 1.000000000000000056e-01
2.314741619640131375e+03 1.778279410038922925e-01
2.459953405256484530e+03 3.162277660168379412e-01
2.657321083639684275e+03 5.623413251903490728e-01
2.864140694443747179e+03 1.000000000000000000e+00
3.065423674304865926e+03 1.778279410038922759e+00
3.273342960961012068e+03 3.162277660168379523e+00
3.491326667155289215e+03 5.623413251903491172e+00
3.723124767717210943e+03 1.000000000000000000e+01
3.973793860147410669e+03 1.778279410038922848e+01
4.250870529140432154e+03 3.162277660168379256e+01
4.560500185585239706e+03 5.623413251903490817e+01
4.910774889071982216e+03 1.000000000000000000e+02
5.305507297767328964e+03 1.778279410038922776e+02
5.770329231304934183e+03 3.162277660168379612e+02
