# Temperature (K), Pressure (bars)
2.377660165331846656e+03 9.999999999999999547e-07
2.392971313488356373e+03 1.778279410038922901e-06
2.408282461644865180e+03 3.162277660168379191e-06
2.430969499315424855e+03 5.623413251903491208e-06
2.460287337786734952e+03 1.000000000000000082e-05
2.492843548454026404e+03 1.778279410038922901e-05
2.527382214070716600e+03 3.162277660168379530e-05
2.563626697299692751e+03 5.623413251903490700e-05
2.602208531038202182e+03 1.000000000000000048e-04
2.643431165241819599e+03 1.778279410038922698e-04
2.686464052037056717e+03 3.162277660168379394e-04
2.730026222694121316e+03 5.623413251903490971e-04
2.772021949846412099e+03 1.000000000000000021e-03
2.809443077289454322e+03 1.778279410038922752e-03
2.839992948747304126e+03 3.162277660168379394e-03
2.865262194582438497e+03 5.623413251903490971e-03
2.891286164377839214e+03 1.000000000000000021e-02
2.925574691245887152e+03 1.778279410038922925e-02
2.974281527918191841e+03 3.162277660168379134e-02
3.042211319817024560e+03 5.623413251903491145e-02
3.146788848412547850e+03 1.000000000000000056e-01
3.297357174048788238e+03 1.778279410038922925e-01
3.474636723575758424e+03 3.162277660168379412e-01
3.672500522270069723e+03 5.623413251903490728e-01
3.901612139502029549e+03 1.000000000000000000e+00
4.168785733957969569e+03 1.778279410038922759e+00
4.484335168690167848e+03 3.162277660168379523e+00
4.846370258581298913e+03 5.623413251903491172e+00
5.305757829000947822e+03 1.000000000000000000e+01
5.926815081297890174e+03 1.778279410038922848e+01
6.835345810667065962e+03 3.162277660168379256e+01
8.192799213112513826e+03 5.623413251903490817e+01
9.997594201887470263e+03 1.000000000000000000e+02
1.000000000000000000e+04 1.778279410038922776e+02
1.000000000000000000e+04 3.162277660168379612e+02
