# Temperature (K), Pressure (bars)
8.371147689232834637e+02 3.162277660168379394e-04
8.788734760760613653e+02 5.623413251903490971e-04
9.206321843979052346e+02 1.000000000000000021e-03
9.617241969643988568e+02 1.778279410038922752e-03
1.003170256260922656e+03 3.162277660168379394e-03
1.044938705916205436e+03 5.623413251903490971e-03
1.088437481851000939e+03 1.000000000000000021e-02
1.135472587351810034e+03 1.778279410038922925e-02
1.192871439947156205e+03 3.162277660168379134e-02
1.259321449137652507e+03 5.623413251903491145e-02
1.375856264761542207e+03 1.000000000000000056e-01
1.594033910599695446e+03 1.778279410038922925e-01
1.861704869646388033e+03 3.162277660168379412e-01
2.129000617820702701e+03 5.623413251903490728e-01
2.392656757865804138e+03 1.000000000000000000e+00
2.643105657378100659e+03 1.778279410038922759e+00
2.881417234710966113e+03 3.162277660168379523e+00
3.114614778862091498e+03 5.623413251903491172e+00
3.350689061984241562e+03 1.000000000000000000e+01
3.596852758530162191e+03 1.778279410038922848e+01
3.861751860207215032e+03 3.162277660168379256e+01
4.150019388637745578e+03 5.623413251903490817e+01
4.468335994650684370e+03 1.000000000000000000e+02
4.819587774339584030e+03 1.778279410038922776e+02
5.223038618825878075e+03 3.162277660168379612e+02
