# Temperature (K), Pressure (bars)
1.635976538883690409e+03 3.162277660168379191e-06
1.654416714604396930e+03 5.623413251903491208e-06
1.672856888832194727e+03 1.000000000000000082e-05
1.689697411975864043e+03 1.778279410038922901e-05
1.752779819868091408e+03 3.162277660168379530e-05
1.814322336730609550e+03 5.623413251903490700e-05
1.848432267828833346e+03 1.000000000000000048e-04
1.888630033998736735e+03 1.778279410038922698e-04
1.934300041795884226e+03 3.162277660168379394e-04
1.977998284451054133e+03 5.623413251903490971e-04
2.021531366360064112e+03 1.000000000000000021e-03
2.063866566387777311e+03 1.778279410038922752e-03
2.103402579472092839e+03 3.162277660168379394e-03
2.140496663951124447e+03 5.623413251903490971e-03
2.177272413317813971e+03 1.000000000000000021e-02
2.215023114334928323e+03 1.778279410038922925e-02
2.263008746156610414e+03 3.162277660168379134e-02
2.320933798265057703e+03 5.623413251903491145e-02
2.414861016430083509e+03 1.000000000000000056e-01
2.579623814006869907e+03 1.778279410038922925e-01
2.765511247228311277e+03 3.162277660168379412e-01
2.940714849658191724e+03 5.623413251903490728e-01
3.124376664767718012e+03 1.000000000000000000e+00
3.319604961211213777e+03 1.778279410038922759e+00
3.527230620469943460e+03 3.162277660168379523e+00
3.749554769122434209e+03 5.623413251903491172e+00
3.990905457510660653e+03 1.000000000000000000e+01
4.256968382710435435e+03 1.778279410038922848e+01
4.554628211172520423e+03 3.162277660168379256e+01
4.892851735175455360e+03 5.623413251903490817e+01
5.287538844130202961e+03 1.000000000000000000e+02
5.750814759703725940e+03 1.778279410038922776e+02
6.304622901750184610e+03 3.162277660168379612e+02
