# Temperature (K), Pressure (bars)
1.554928559270110327e+03 3.162277660168379530e-05
1.571425990398426165e+03 5.623413251903490700e-05
1.587923423551389988e+03 1.000000000000000048e-04
1.610416345798524844e+03 1.778279410038922698e-04
1.638789394831949721e+03 3.162277660168379394e-04
1.673064217091023238e+03 5.623413251903490971e-04
1.714040647132581171e+03 1.000000000000000021e-03
1.760450284919270871e+03 1.778279410038922752e-03
1.812009927886945661e+03 3.162277660168379394e-03
1.867537247586269586e+03 5.623413251903490971e-03
1.925863385312323317e+03 1.000000000000000021e-02
1.988500889082464482e+03 1.778279410038922925e-02
2.055926569216195276e+03 3.162277660168379134e-02
2.134347155534309422e+03 5.623413251903491145e-02
2.223118885562498235e+03 1.000000000000000056e-01
2.347761846334531583e+03 1.778279410038922925e-01
2.536880331888194632e+03 3.162277660168379412e-01
2.741959944044302574e+03 5.623413251903490728e-01
2.933727711783163159e+03 1.000000000000000000e+00
3.130165765160221326e+03 1.778279410038922759e+00
3.335978743140183724e+03 3.162277660168379523e+00
3.553802819151490894e+03 5.623413251903491172e+00
3.787041233968484903e+03 1.000000000000000000e+01
4.040567619945910337e+03 1.778279410038922848e+01
4.321846041486404829e+03 3.162277660168379256e+01
4.637523406925477502e+03 5.623413251903490817e+01
4.996323146322274624e+03 1.000000000000000000e+02
5.402257185757089246e+03 1.778279410038922776e+02
5.883465869884423228e+03 3.162277660168379612e+02
