# Temperature (K), Pressure (bars)
1.073964711684007852e+03 3.162277660168379394e-03
1.105435716433346442e+03 5.623413251903490971e-03
1.136906719493751098e+03 1.000000000000000021e-02
1.159954139985208712e+03 1.778279410038922925e-02
1.178822866562561330e+03 3.162277660168379134e-02
1.201176984386103868e+03 5.623413251903491145e-02
1.230747975423003481e+03 1.000000000000000056e-01
1.270182035214635789e+03 1.778279410038922925e-01
1.320204079732012360e+03 3.162277660168379412e-01
1.387185105708472520e+03 5.623413251903490728e-01
1.478407200199877934e+03 1.000000000000000000e+00
1.597081135211804167e+03 1.778279410038922759e+00
1.741970879612670160e+03 3.162277660168379523e+00
1.940857444955327310e+03 5.623413251903491172e+00
2.223292354422699646e+03 1.000000000000000000e+01
2.539461552756341916e+03 1.778279410038922848e+01
2.852633598926038303e+03 3.162277660168379256e+01
3.167307743985898469e+03 5.623413251903490817e+01
3.487153697460982585e+03 1.000000000000000000e+02
3.816777829718645535e+03 1.778279410038922776e+02
4.169555002259141474e+03 3.162277660168379612e+02
