# Temperature (K), Pressure (bars)
1.645617546764618282e+03 3.162277660168379530e-05
1.657828218945487151e+03 5.623413251903490700e-05
1.670038894186033076e+03 1.000000000000000048e-04
1.687257800855869391e+03 1.778279410038922698e-04
1.715198867799202844e+03 3.162277660168379394e-04
1.768403296841438078e+03 5.623413251903490971e-04
1.825711386308609463e+03 1.000000000000000021e-03
1.869890926771171507e+03 1.778279410038922752e-03
1.912350272120802629e+03 3.162277660168379394e-03
1.952870570498277402e+03 5.623413251903490971e-03
1.987865771359659448e+03 1.000000000000000021e-02
2.018965657416135173e+03 1.778279410038922925e-02
2.046324580056585546e+03 3.162277660168379134e-02
2.072056824078036698e+03 5.623413251903491145e-02
2.103096486948799338e+03 1.000000000000000056e-01
2.144094903543869350e+03 1.778279410038922925e-01
2.201928315847710110e+03 3.162277660168379412e-01
2.273977132425078707e+03 5.623413251903490728e-01
2.384514385569987553e+03 1.000000000000000000e+00
2.576786417535111923e+03 1.778279410038922759e+00
2.814707018512908689e+03 3.162277660168379523e+00
3.052980758039087050e+03 5.623413251903491172e+00
3.294666123269169475e+03 1.000000000000000000e+01
3.545193393902605294e+03 1.778279410038922848e+01
3.811012011851621082e+03 3.162277660168379256e+01
4.098595861178411724e+03 5.623413251903490817e+01
4.414799644785077362e+03 1.000000000000000000e+02
4.762836085354258103e+03 1.778279410038922776e+02
5.161210010974391480e+03 3.162277660168379612e+02
