# Temperature (K), Pressure (bars)
9.600871082919828723e+02 5.623413251903490971e-04
1.016227630748466481e+03 1.000000000000000021e-03
1.072368154653209103e+03 1.778279410038922752e-03
1.126888739349780280e+03 3.162277660168379394e-03
1.180458674212207370e+03 5.623413251903490971e-03
1.234694100682949056e+03 1.000000000000000021e-02
1.291557834229605760e+03 1.778279410038922925e-02
1.354207511244792840e+03 3.162277660168379134e-02
1.430099851922886501e+03 5.623413251903491145e-02
1.531511258380493700e+03 1.000000000000000056e-01
1.669780501287727930e+03 1.778279410038922925e-01
1.850425987487597695e+03 3.162277660168379412e-01
2.078916570408659936e+03 5.623413251903490728e-01
2.342073915304935781e+03 1.000000000000000000e+00
2.601238837395430437e+03 1.778279410038922759e+00
2.843674371612992672e+03 3.162277660168379523e+00
3.081073299421321735e+03 5.623413251903491172e+00
3.320508020870895507e+03 1.000000000000000000e+01
3.568668695511320038e+03 1.778279410038922848e+01
3.833961669680713840e+03 3.162277660168379256e+01
4.121790643460497449e+03 5.623413251903490817e+01
4.438930428551658224e+03 1.000000000000000000e+02
4.788595649784719171e+03 1.778279410038922776e+02
5.189399008279542613e+03 3.162277660168379612e+02
