# Temperature (K), Pressure (bars)
9.989389508290565800e+02 5.623413251903490700e-05
1.059144254371056377e+03 1.000000000000000048e-04
1.119349561403686039e+03 1.778279410038922698e-04
1.179642944733139302e+03 3.162277660168379394e-04
1.240773651755657738e+03 5.623413251903490971e-04
1.303815358337565613e+03 1.000000000000000021e-03
1.369424161293348561e+03 1.778279410038922752e-03
1.442166937344527923e+03 3.162277660168379394e-03
1.527674082270042845e+03 5.623413251903490971e-03
1.616495695308301720e+03 1.000000000000000021e-02
1.693883493190364334e+03 1.778279410038922925e-02
1.765333060275026355e+03 3.162277660168379134e-02
1.842469951110779448e+03 5.623413251903491145e-02
1.936828558561094951e+03 1.000000000000000056e-01
2.048050216411500060e+03 1.778279410038922925e-01
2.199436780780582922e+03 3.162277660168379412e-01
2.421224780429894054e+03 5.623413251903490728e-01
2.659874239532191950e+03 1.000000000000000000e+00
2.879095384682805161e+03 1.778279410038922759e+00
3.096739933928430673e+03 3.162277660168379523e+00
3.318781766748081282e+03 5.623413251903491172e+00
3.550176488193450496e+03 1.000000000000000000e+01
3.796521498875762973e+03 1.778279410038922848e+01
4.065511803653059815e+03 3.162277660168379256e+01
4.362605153993951717e+03 5.623413251903490817e+01
4.695046098552901640e+03 1.000000000000000000e+02
5.066145416184486749e+03 1.778279410038922776e+02
5.497878144860294015e+03 3.162277660168379612e+02
