# Temperature (K), Pressure (bars)
1.113216561263570838e+03 9.999999999999999547e-07
1.128924060986843415e+03 1.778279410038922901e-06
1.144631560712307419e+03 3.162277660168379191e-06
1.165236054064642303e+03 5.623413251903491208e-06
1.192722120528992491e+03 1.000000000000000082e-05
1.227018997043498985e+03 1.778279410038922901e-05
1.267374608815640840e+03 3.162277660168379530e-05
1.313117945288346618e+03 5.623413251903490700e-05
1.363380857214318894e+03 1.000000000000000048e-04
1.419040068035022614e+03 1.778279410038922698e-04
1.480212104587513068e+03 3.162277660168379394e-04
1.548838516554205853e+03 5.623413251903490971e-04
1.624681182458554758e+03 1.000000000000000021e-03
1.715348303734458113e+03 1.778279410038922752e-03
1.827662250550522458e+03 3.162277660168379394e-03
1.961830026525076846e+03 5.623413251903490971e-03
2.124472122455343197e+03 1.000000000000000021e-02
2.296416991123135176e+03 1.778279410038922925e-02
2.460133962708038780e+03 3.162277660168379134e-02
2.621652293377753267e+03 5.623413251903491145e-02
2.784575927959082946e+03 1.000000000000000056e-01
2.951725327923189070e+03 1.778279410038922925e-01
3.125395188062248508e+03 3.162277660168379412e-01
3.307383466535836305e+03 5.623413251903490728e-01
3.499678550269632069e+03 1.000000000000000000e+00
3.705587927607598886e+03 1.778279410038922759e+00
3.929862387770650457e+03 3.162277660168379523e+00
4.178321579844650842e+03 5.623413251903491172e+00
4.458129448389389836e+03 1.000000000000000000e+01
4.778933591373905074e+03 1.778279410038922848e+01
5.156631262141382649e+03 3.162277660168379256e+01
5.608544830763316895e+03 5.623413251903490817e+01
6.163681539357218753e+03 1.000000000000000000e+02
6.867433559728171531e+03 1.778279410038922776e+02
7.793767371123324665e+03 3.162277660168379612e+02
