# Temperature (K), Pressure (bars)
1.703826398209447234e+03 1.000000000000000082e-05
1.709483140008732107e+03 1.778279410038922901e-05
1.715139884734441239e+03 3.162277660168379530e-05
1.770100966062274892e+03 5.623413251903490700e-05
1.822963412763489487e+03 1.000000000000000048e-04
1.854138610102037546e+03 1.778279410038922698e-04
1.890784422055037339e+03 3.162277660168379394e-04
1.934369957176644220e+03 5.623413251903490971e-04
1.978237392399606506e+03 1.000000000000000021e-03
2.022244403266494601e+03 1.778279410038922752e-03
2.064116942706733425e+03 3.162277660168379394e-03
2.101739357277408999e+03 5.623413251903490971e-03
2.135649554564670780e+03 1.000000000000000021e-02
2.166613805619114828e+03 1.778279410038922925e-02
2.197871558543962692e+03 3.162277660168379134e-02
2.232869270033409975e+03 5.623413251903491145e-02
2.282406550020329178e+03 1.000000000000000056e-01
2.346374920895440937e+03 1.778279410038922925e-01
2.446686580251665873e+03 3.162277660168379412e-01
2.620159800304513738e+03 5.623413251903490728e-01
2.825644178941889550e+03 1.000000000000000000e+00
3.026618025417118133e+03 1.778279410038922759e+00
3.234599334965587332e+03 3.162277660168379523e+00
3.453344271541926446e+03 5.623413251903491172e+00
3.685744997740821418e+03 1.000000000000000000e+01
3.936092746579343839e+03 1.778279410038922848e+01
4.211310177657058375e+03 3.162277660168379256e+01
4.518064448831652044e+03 5.623413251903490817e+01
4.864262028607106913e+03 1.000000000000000000e+02
5.253717623630396702e+03 1.778279410038922776e+02
5.711328044517207672e+03 3.162277660168379612e+02
