# Temperature (K), Pressure (bars)
1.547022739742308659e+03 9.999999999999999547e-07
1.559650946345141620e+03 1.778279410038922901e-06
1.572279152948648061e+03 3.162277660168379191e-06
1.589368517727565177e+03 5.623413251903491208e-06
1.613516188191474612e+03 1.000000000000000082e-05
1.644523744690141939e+03 1.778279410038922901e-05
1.683147261400099296e+03 3.162277660168379530e-05
1.730160391099464732e+03 5.623413251903490700e-05
1.784005895381681967e+03 1.000000000000000048e-04
1.844112642301034612e+03 1.778279410038922698e-04
1.909187482607888342e+03 3.162277660168379394e-04
1.978919622598698879e+03 5.623413251903490971e-04
2.052840008839505572e+03 1.000000000000000021e-03
2.136769534142380508e+03 1.778279410038922752e-03
2.241675823307752125e+03 3.162277660168379394e-03
2.361091822257473723e+03 5.623413251903490971e-03
2.485554265780044261e+03 1.000000000000000021e-02
2.615912178544419476e+03 1.778279410038922925e-02
2.753515258805572557e+03 3.162277660168379134e-02
2.899909601744160227e+03 5.623413251903491145e-02
3.056969530296113135e+03 1.000000000000000056e-01
3.227075288148763320e+03 1.778279410038922925e-01
3.412768541413862295e+03 3.162277660168379412e-01
3.616426010334448620e+03 5.623413251903490728e-01
3.840783077381414387e+03 1.000000000000000000e+00
4.091427985860888839e+03 1.778279410038922759e+00
4.377811409684150931e+03 3.162277660168379523e+00
4.706527270647537989e+03 5.623413251903491172e+00
5.109383009996096916e+03 1.000000000000000000e+01
5.626167486287229622e+03 1.778279410038922848e+01
6.329506842401174254e+03 3.162277660168379256e+01
7.346062758272074461e+03 5.623413251903490817e+01
8.828840165764939229e+03 1.000000000000000000e+02
1.074046693522134592e+04 1.778279410038922776e+02
1.302826630745685361e+04 3.162277660168379612e+02
