# Temperature (K), Pressure (bars)
1.282125222682749609e+03 9.999999999999999547e-07
1.288050666638584516e+03 1.778279410038922901e-06
1.293976110609326042e+03 3.162277660168379191e-06
1.306275097659105313e+03 5.623413251903491208e-06
1.324772800461783618e+03 1.000000000000000082e-05
1.348122661956079810e+03 1.778279410038922901e-05
1.377746417678381931e+03 3.162277660168379530e-05
1.415427855285272926e+03 5.623413251903490700e-05
1.461015122056760447e+03 1.000000000000000048e-04
1.519178949246093225e+03 1.778279410038922698e-04
1.590885185158250351e+03 3.162277660168379394e-04
1.663724140838976382e+03 5.623413251903490971e-04
1.733201190999103119e+03 1.000000000000000021e-03
1.804823282925174908e+03 1.778279410038922752e-03
1.881610038933184342e+03 3.162277660168379394e-03
1.964304235115993606e+03 5.623413251903490971e-03
2.062345479739909933e+03 1.000000000000000021e-02
2.193109218594249796e+03 1.778279410038922925e-02
2.349100679323575150e+03 3.162277660168379134e-02
2.508880511166170891e+03 5.623413251903491145e-02
2.668035316997943482e+03 1.000000000000000056e-01
2.830439050378612592e+03 1.778279410038922925e-01
2.999190455100682357e+03 3.162277660168379412e-01
3.176651462411029570e+03 5.623413251903490728e-01
3.364374496794565857e+03 1.000000000000000000e+00
3.564051742560178354e+03 1.778279410038922759e+00
3.778917841514468364e+03 3.162277660168379523e+00
4.013764175781822814e+03 5.623413251903491172e+00
4.274469183726677329e+03 1.000000000000000000e+01
4.568323032725833400e+03 1.778279410038922848e+01
4.905180359459141982e+03 3.162277660168379256e+01
5.301849882755216640e+03 5.623413251903490817e+01
5.774271489303137969e+03 1.000000000000000000e+02
6.350262459788739761e+03 1.778279410038922776e+02
7.072801404915233434e+03 3.162277660168379612e+02
