# Temperature (K), Pressure (bars)
1.084777212501403255e+03 9.999999999999999547e-07
1.110075510286421832e+03 1.778279410038922901e-06
1.135373808073632063e+03 3.162277660168379191e-06
1.164229449437236326e+03 5.623413251903491208e-06
1.198316737122625455e+03 1.000000000000000082e-05
1.236923758337923118e+03 1.778279410038922901e-05
1.279058493259555235e+03 3.162277660168379530e-05
1.325005823914399571e+03 5.623413251903490700e-05
1.375649365874160139e+03 1.000000000000000048e-04
1.433179666311060373e+03 1.778279410038922698e-04
1.497756944854771746e+03 3.162277660168379394e-04
1.570926312219698957e+03 5.623413251903490971e-04
1.653208286805230955e+03 1.000000000000000021e-03
1.748912064247827857e+03 1.778279410038922752e-03
1.871019148473631503e+03 3.162277660168379394e-03
2.020455413456791121e+03 5.623413251903490971e-03
2.184830947953440500e+03 1.000000000000000021e-02
2.349874286156999915e+03 1.778279410038922925e-02
2.510567723496220879e+03 3.162277660168379134e-02
2.670989385439687794e+03 5.623413251903491145e-02
2.834344951488845254e+03 1.000000000000000056e-01
3.003108906261249103e+03 1.778279410038922925e-01
3.179202436583567760e+03 3.162277660168379412e-01
3.364148729266840746e+03 5.623413251903490728e-01
3.560132027438084151e+03 1.000000000000000000e+00
3.771001568839669744e+03 1.778279410038922759e+00
4.002033822436096671e+03 3.162277660168379523e+00
4.259668668441896443e+03 5.623413251903491172e+00
4.552084614590667115e+03 1.000000000000000000e+01
4.890615016712810757e+03 1.778279410038922848e+01
5.293421391083458730e+03 3.162277660168379256e+01
5.783021297661048266e+03 5.623413251903490817e+01
6.395417364567477307e+03 1.000000000000000000e+02
7.187038699874041413e+03 1.778279410038922776e+02
8.254800052971751938e+03 3.162277660168379612e+02
