# Temperature (K), Pressure (bars)
1.044357558253064781e+03 1.000000000000000048e-04
1.082362441529376383e+03 1.778279410038922698e-04
1.120367319555124368e+03 3.162277660168379394e-04
1.153072811974069282e+03 5.623413251903490971e-04
1.182959878578039479e+03 1.000000000000000021e-03
1.211681783644027973e+03 1.778279410038922752e-03
1.238137409636268330e+03 3.162277660168379394e-03
1.263937442398997746e+03 5.623413251903490971e-03
1.307250492025833410e+03 1.000000000000000021e-02
1.377847513084771890e+03 1.778279410038922925e-02
1.467452117498531834e+03 3.162277660168379134e-02
1.579096167180032126e+03 5.623413251903491145e-02
1.691819971350902961e+03 1.000000000000000056e-01
1.798796942424855160e+03 1.778279410038922925e-01
1.916975865902849364e+03 3.162277660168379412e-01
2.080349590326753514e+03 5.623413251903490728e-01
2.326243419589063251e+03 1.000000000000000000e+00
2.595148383839720736e+03 1.778279410038922759e+00
2.840122492455890551e+03 3.162277660168379523e+00
3.078792529987628768e+03 5.623413251903491172e+00
3.318762415012726706e+03 1.000000000000000000e+01
3.567109936825957448e+03 1.778279410038922848e+01
3.832422604834135200e+03 3.162277660168379256e+01
4.120261654573990199e+03 5.623413251903490817e+01
4.437354452224925808e+03 1.000000000000000000e+02
4.786949034684353137e+03 1.778279410038922776e+02
5.187572898253892163e+03 3.162277660168379612e+02
