# Temperature (K), Pressure (bars)
1.490513467679563291e+03 1.778279410038922901e-05
1.519175848049654178e+03 3.162277660168379530e-05
1.547838232178824455e+03 5.623413251903490700e-05
1.582451503074417133e+03 1.000000000000000048e-04
1.624987670618507764e+03 1.778279410038922698e-04
1.669508541440925001e+03 3.162277660168379394e-04
1.719484364691276824e+03 5.623413251903490971e-04
1.780865301683588768e+03 1.000000000000000021e-03
1.837032931989471763e+03 1.778279410038922752e-03
1.877706332004966498e+03 3.162277660168379394e-03
1.911792558031697354e+03 5.623413251903490971e-03
1.942607322287451552e+03 1.000000000000000021e-02
1.970462552052473256e+03 1.778279410038922925e-02
1.998234305986739855e+03 3.162277660168379134e-02
2.030636823113753280e+03 5.623413251903491145e-02
2.071743109197436297e+03 1.000000000000000056e-01
2.129386781107686602e+03 1.778279410038922925e-01
2.199984651926765764e+03 3.162277660168379412e-01
2.308720549374590064e+03 5.623413251903490728e-01
2.499316056910407042e+03 1.000000000000000000e+00
2.731114005339007235e+03 1.778279410038922759e+00
2.958857294432051276e+03 3.162277660168379523e+00
3.188226670381297026e+03 5.623413251903491172e+00
3.424164075019205939e+03 1.000000000000000000e+01
3.671736168032260593e+03 1.778279410038922848e+01
3.938103313362136760e+03 3.162277660168379256e+01
4.229446209481195183e+03 5.623413251903490817e+01
4.552685693541116052e+03 1.000000000000000000e+02
4.911078381843972238e+03 1.778279410038922776e+02
5.324479614862886592e+03 3.162277660168379612e+02
