# Temperature (K), Pressure (bars)
9.585855119315253887e+02 3.162277660168379394e-04
1.017291799039487046e+03 5.623413251903490971e-04
1.075998087373254293e+03 1.000000000000000021e-03
1.132955386736327455e+03 1.778279410038922752e-03
1.189398436273460447e+03 3.162277660168379394e-03
1.248090049769653888e+03 5.623413251903490971e-03
1.312524458009536602e+03 1.000000000000000021e-02
1.387514398018248357e+03 1.778279410038922925e-02
1.483254980320100913e+03 3.162277660168379134e-02
1.627573955449716095e+03 5.623413251903491145e-02
1.840572069381866640e+03 1.000000000000000056e-01
2.091808497652371443e+03 1.778279410038922925e-01
2.336679490401012117e+03 3.162277660168379412e-01
2.563377851927509255e+03 5.623413251903490728e-01
2.777927521973140756e+03 1.000000000000000000e+00
2.987017321352956515e+03 1.778279410038922759e+00
3.196924504955467000e+03 3.162277660168379523e+00
3.413494583789253284e+03 5.623413251903491172e+00
3.642280630171290795e+03 1.000000000000000000e+01
3.888784161814682193e+03 1.778279410038922848e+01
4.160980459737053025e+03 3.162277660168379256e+01
4.463635895862546931e+03 5.623413251903490817e+01
4.804290144907125068e+03 1.000000000000000000e+02
5.186465776033029215e+03 1.778279410038922776e+02
5.633842306731970893e+03 3.162277660168379612e+02
