# Temperature (K), Pressure (bars)
8.893986436328179934e+02 3.162277660168379394e-04
9.416942229250905712e+02 5.623413251903490971e-04
9.939898034490391865e+02 1.000000000000000021e-03
1.043856710489907073e+03 1.778279410038922752e-03
1.092944030678339232e+03 3.162277660168379394e-03
1.143163266715333293e+03 5.623413251903490971e-03
1.202181696261596244e+03 1.000000000000000021e-02
1.268581614361398124e+03 1.778279410038922925e-02
1.381775140801624502e+03 3.162277660168379134e-02
1.595607054313458775e+03 5.623413251903491145e-02
1.858879891194357697e+03 1.000000000000000056e-01
2.116933567105665588e+03 1.778279410038922925e-01
2.363093679957261429e+03 3.162277660168379412e-01
2.590206940785485585e+03 5.623413251903490728e-01
2.803018226317383323e+03 1.000000000000000000e+00
3.009384036233436746e+03 1.778279410038922759e+00
3.216855460227404365e+03 3.162277660168379523e+00
3.431864506346529652e+03 5.623413251903491172e+00
3.659906384143474952e+03 1.000000000000000000e+01
3.906332927927881428e+03 1.778279410038922848e+01
4.179215901595586729e+03 3.162277660168379256e+01
4.483040089634650030e+03 5.623413251903490817e+01
4.825334298848811159e+03 1.000000000000000000e+02
5.209616377635940808e+03 1.778279410038922776e+02
5.659747093338437480e+03 3.162277660168379612e+02
