# Temperature (K), Pressure (bars)
1.655314687118916709e+03 9.999999999999999547e-07
1.661008945080622880e+03 1.778279410038922901e-06
1.666703203048642081e+03 3.162277660168379191e-06
1.676018071228580538e+03 5.623413251903491208e-06
1.690572447555058261e+03 1.000000000000000082e-05
1.712276041661943509e+03 1.778279410038922901e-05
1.739895359765941066e+03 3.162277660168379530e-05
1.772882458308667992e+03 5.623413251903490700e-05
1.813624259791512259e+03 1.000000000000000048e-04
1.860856040910331785e+03 1.778279410038922698e-04
1.912734582656989232e+03 3.162277660168379394e-04
1.969010384934986178e+03 5.623413251903490971e-04
2.030060685957358601e+03 1.000000000000000021e-03
2.096673285262608260e+03 1.778279410038922752e-03
2.170680415978911697e+03 3.162277660168379394e-03
2.262729591632807569e+03 5.623413251903490971e-03
2.378738069320610975e+03 1.000000000000000021e-02
2.506621264403919668e+03 1.778279410038922925e-02
2.639214516539469059e+03 3.162277660168379134e-02
2.779232273460095257e+03 5.623413251903491145e-02
2.928515165840216014e+03 1.000000000000000056e-01
3.089358784492880204e+03 1.778279410038922925e-01
3.264021693904451240e+03 3.162277660168379412e-01
3.453747606415125119e+03 5.623413251903490728e-01
3.659359921221008790e+03 1.000000000000000000e+00
3.883522078256781697e+03 1.778279410038922759e+00
4.131780973433371400e+03 3.162277660168379523e+00
4.412320046157015895e+03 5.623413251903491172e+00
4.736526658642669645e+03 1.000000000000000000e+01
5.120049379978477191e+03 1.778279410038922848e+01
5.590470082467599241e+03 3.162277660168379256e+01
6.191136471517575956e+03 5.623413251903490817e+01
6.998676159455983907e+03 1.000000000000000000e+02
8.135153689003321233e+03 1.778279410038922776e+02
9.729023699685723841e+03 3.162277660168379612e+02
