# Temperature (K), Pressure (bars)
1.040039706840614144e+03 9.999999999999999547e-07
1.096677633324659155e+03 1.778279410038922901e-06
1.153315559808704393e+03 3.162277660168379191e-06
1.233347098228934328e+03 5.623413251903491208e-06
1.338940823821239746e+03 1.000000000000000082e-05
1.480565728856081932e+03 1.778279410038922901e-05
1.610755306090803060e+03 3.162277660168379530e-05
1.695808509624432190e+03 5.623413251903490700e-05
1.760640155413622097e+03 1.000000000000000048e-04
1.816747454541113711e+03 1.778279410038922698e-04
1.863964212152391838e+03 3.162277660168379394e-04
1.906015275607628155e+03 5.623413251903490971e-04
1.946119720747196880e+03 1.000000000000000021e-03
1.986857321997751114e+03 1.778279410038922752e-03
2.030615710919730873e+03 3.162277660168379394e-03
2.078988837937161406e+03 5.623413251903490971e-03
2.134535571878782321e+03 1.000000000000000021e-02
2.200118854638113589e+03 1.778279410038922925e-02
2.281207269800586801e+03 3.162277660168379134e-02
2.395801828905679486e+03 5.623413251903491145e-02
2.547714266382542519e+03 1.000000000000000056e-01
2.712693390355370866e+03 1.778279410038922925e-01
2.880927616054148530e+03 3.162277660168379412e-01
3.058034970127047927e+03 5.623413251903490728e-01
3.244781716132402835e+03 1.000000000000000000e+00
3.441673087610881339e+03 1.778279410038922759e+00
3.651171093370225663e+03 3.162277660168379523e+00
3.877576675983572386e+03 5.623413251903491172e+00
4.126206492396889189e+03 1.000000000000000000e+01
4.403329141675903884e+03 1.778279410038922848e+01
4.716690300694474900e+03 3.162277660168379256e+01
5.076804316105020916e+03 5.623413251903490817e+01
5.502049383323155780e+03 1.000000000000000000e+02
6.008029796544071360e+03 1.778279410038922776e+02
6.623790571653650659e+03 3.162277660168379612e+02
