# Temperature (K), Pressure (bars)
9.259618163797508714e+02 9.999999999999999547e-07
9.342277368591087452e+02 1.778279410038922901e-06
9.424936573405710760e+02 3.162277660168379191e-06
9.554215974831208769e+02 5.623413251903491208e-06
9.740511078839358561e+02 1.000000000000000082e-05
9.987318752144271912e+02 1.778279410038922901e-05
1.029099263800989775e+03 3.162277660168379530e-05
1.064687169140046763e+03 5.623413251903490700e-05
1.105398630450479686e+03 1.000000000000000048e-04
1.150240638987338571e+03 1.778279410038922698e-04
1.198834481054338994e+03 3.162277660168379394e-04
1.250994017198373058e+03 5.623413251903490971e-04
1.306491934861585378e+03 1.000000000000000021e-03
1.366336444908919475e+03 1.778279410038922752e-03
1.432990346578669232e+03 3.162277660168379394e-03
1.508560841992235964e+03 5.623413251903490971e-03
1.599582700901546559e+03 1.000000000000000021e-02
1.710311457576274734e+03 1.778279410038922925e-02
1.869450377344113804e+03 3.162277660168379134e-02
2.092256876973086037e+03 5.623413251903491145e-02
2.319445601666064249e+03 1.000000000000000056e-01
2.519590475124409295e+03 1.778279410038922925e-01
2.709584781459894657e+03 3.162277660168379412e-01
2.896514628516780249e+03 5.623413251903490728e-01
3.085159018441698663e+03 1.000000000000000000e+00
3.279252123712593857e+03 1.778279410038922759e+00
3.482644852229885601e+03 3.162277660168379523e+00
3.699774086811832603e+03 5.623413251903491172e+00
3.935460687842012248e+03 1.000000000000000000e+01
4.194990475459377194e+03 1.778279410038922848e+01
4.484682373801521862e+03 3.162277660168379256e+01
4.812844492669200918e+03 5.623413251903490817e+01
5.194633102968263302e+03 1.000000000000000000e+02
5.639889453265443990e+03 1.778279410038922776e+02
6.167813049605941160e+03 3.162277660168379612e+02
