# Temperature (K), Pressure (bars)
1.627625251186409514e+03 3.162277660168379191e-06
1.634453427866486891e+03 5.623413251903491208e-06
1.652439320138507128e+03 1.000000000000000082e-05
1.679025861310229629e+03 1.778279410038922901e-05
1.714677780426172831e+03 3.162277660168379530e-05
1.756253639987112820e+03 5.623413251903490700e-05
1.802207851614778292e+03 1.000000000000000048e-04
1.849869742368332709e+03 1.778279410038922698e-04
1.895622746864228702e+03 3.162277660168379394e-04
1.939850233039838258e+03 5.623413251903490971e-04
1.984531575283480151e+03 1.000000000000000021e-03
2.031562179298308365e+03 1.778279410038922752e-03
2.081902210823916448e+03 3.162277660168379394e-03
2.135654589877955459e+03 5.623413251903490971e-03
2.196075679897169266e+03 1.000000000000000021e-02
2.264460494387648396e+03 1.778279410038922925e-02
2.353593848490615528e+03 3.162277660168379134e-02
2.481102148093216783e+03 5.623413251903491145e-02
2.630680627188622566e+03 1.000000000000000056e-01
2.784847360282716181e+03 1.778279410038922925e-01
2.946345122516130687e+03 3.162277660168379412e-01
3.117712594358136812e+03 5.623413251903490728e-01
3.301165571452175300e+03 1.000000000000000000e+00
3.498358505874807179e+03 1.778279410038922759e+00
3.711081838620971212e+03 3.162277660168379523e+00
3.942553852506896419e+03 5.623413251903491172e+00
4.197781571052733852e+03 1.000000000000000000e+01
4.483436239703516549e+03 1.778279410038922848e+01
4.808367679923567266e+03 3.162277660168379256e+01
5.187334380004936975e+03 5.623413251903490817e+01
5.633893206778434433e+03 1.000000000000000000e+02
6.170050402514920279e+03 1.778279410038922776e+02
6.828828351650256081e+03 3.162277660168379612e+02
