# Temperature (K), Pressure (bars)
1.879839456753678178e+03 9.999999999999999547e-07
1.889190562681409347e+03 1.778279410038922901e-06
1.898541668609140970e+03 3.162277660168379191e-06
1.915262183427097625e+03 5.623413251903491208e-06
1.939441744652144735e+03 1.000000000000000082e-05
1.969237796701704610e+03 1.778279410038922901e-05
2.004851364719980666e+03 3.162277660168379530e-05
2.044726325295695915e+03 5.623413251903490700e-05
2.084939027133090349e+03 1.000000000000000048e-04
2.123242731318447568e+03 1.778279410038922698e-04
2.160222550183947988e+03 3.162277660168379394e-04
2.197362927870507519e+03 5.623413251903490971e-04
2.236866008720697664e+03 1.000000000000000021e-03
2.280409717892882327e+03 1.778279410038922752e-03
2.330931224367711820e+03 3.162277660168379394e-03
2.388802658376599993e+03 5.623413251903490971e-03
2.462343997969415796e+03 1.000000000000000021e-02
2.565310592126030315e+03 1.778279410038922925e-02
2.688129345525978351e+03 3.162277660168379134e-02
2.819715929483474611e+03 5.623413251903491145e-02
2.962313534384478316e+03 1.000000000000000056e-01
3.117623739529095019e+03 1.778279410038922925e-01
3.287829325702459755e+03 3.162277660168379412e-01
3.475232040906433213e+03 5.623413251903490728e-01
3.681862363794423800e+03 1.000000000000000000e+00
3.910132660482488973e+03 1.778279410038922759e+00
4.164615574263480084e+03 3.162277660168379523e+00
4.453377394578747044e+03 5.623413251903491172e+00
4.788560838231382149e+03 1.000000000000000000e+01
5.185667017775387649e+03 1.778279410038922848e+01
5.676434587363914943e+03 3.162277660168379256e+01
6.305135622603869706e+03 5.623413251903490817e+01
7.145884950155546903e+03 1.000000000000000000e+02
8.330898678386673055e+03 1.778279410038922776e+02
9.995549437102887168e+03 3.162277660168379612e+02
