# Temperature (K), Pressure (bars)
2.350196029835643913e+03 9.999999999999999547e-07
2.366534887721346877e+03 1.778279410038922901e-06
2.382873745607050296e+03 3.162277660168379191e-06
2.410925516641457762e+03 5.623413251903491208e-06
2.445595404872073232e+03 1.000000000000000082e-05
2.483806446024678735e+03 1.778279410038922901e-05
2.524828543891090703e+03 3.162277660168379530e-05
2.567433360221680687e+03 5.623413251903490700e-05
2.610379087683442776e+03 1.000000000000000048e-04
2.650612226412263226e+03 1.778279410038922698e-04
2.685548566101996130e+03 3.162277660168379394e-04
2.714653655979343512e+03 5.623413251903490971e-04
2.742204531578624028e+03 1.000000000000000021e-03
2.776291304827682779e+03 1.778279410038922752e-03
2.824496541039185104e+03 3.162277660168379394e-03
2.888796996771657632e+03 5.623413251903490971e-03
2.968455034045553930e+03 1.000000000000000021e-02
3.056912516317278460e+03 1.778279410038922925e-02
3.158704530291294759e+03 3.162277660168379134e-02
3.298643004440387813e+03 5.623413251903491145e-02
3.483635452760823682e+03 1.000000000000000056e-01
3.701386647614323920e+03 1.778279410038922925e-01
3.954903593313505553e+03 3.162277660168379412e-01
4.269083229604885673e+03 5.623413251903490728e-01
4.707417325017858275e+03 1.000000000000000000e+00
5.407783982754218414e+03 1.778279410038922759e+00
6.555604232209461770e+03 3.162277660168379523e+00
8.104540697223776078e+03 5.623413251903491172e+00
9.819042545179981971e+03 1.000000000000000000e+01
1.000000000000000000e+04 1.778279410038922848e+01
1.000000000000000000e+04 3.162277660168379256e+01
1.000000000000000000e+04 5.623413251903490817e+01
1.000000000000000000e+04 1.000000000000000000e+02
1.000000000000000000e+04 1.778279410038922776e+02
1.000000000000000000e+04 3.162277660168379612e+02
