# Temperature (K), Pressure (bars)
2.004153673959367734e+04 9.999999999999999547e-07
2.425582000540414083e+04 1.778279410038922901e-06
2.934902387337162145e+04 3.162277660168379191e-06
3.514906404359045700e+04 5.623413251903491208e-06
4.130617532915269840e+04 1.000000000000000082e-05
4.734332233125568746e+04 1.778279410038922901e-05
5.286190404610895348e+04 3.162277660168379530e-05
5.767334210440085008e+04 5.623413251903490700e-05
6.183012829491835873e+04 1.000000000000000048e-04
6.550957845027383883e+04 1.778279410038922698e-04
6.889820633500494296e+04 3.162277660168379394e-04
7.216139669239139766e+04 5.623413251903490971e-04
7.541733882593765156e+04 1.000000000000000021e-03
7.876828962721447169e+04 1.778279410038922752e-03
8.230428647295117844e+04 3.162277660168379394e-03
8.611349987591599347e+04 5.623413251903490971e-03
9.030112765950593166e+04 1.000000000000000021e-02
9.499672167592526239e+04 1.778279410038922925e-02
1.003626536366235814e+05 3.162277660168379134e-02
1.066227145100812340e+05 5.623413251903491145e-02
1.140597393573665613e+05 1.000000000000000056e-01
1.230430113564069470e+05 1.778279410038922925e-01
1.340692587944324187e+05 3.162277660168379412e-01
1.477710493578363967e+05 5.623413251903490728e-01
1.649532059688397567e+05 1.000000000000000000e+00
1.866473467951506609e+05 1.778279410038922759e+00
2.141566259360466211e+05 3.162277660168379523e+00
2.491125370522680751e+05 5.623413251903491172e+00
2.934930417348873452e+05 1.000000000000000000e+01
3.497410510855859611e+05 1.778279410038922848e+01
4.207366211390803801e+05 3.162277660168379256e+01
5.097423132100038929e+05 5.623413251903490817e+01
6.201465958132557571e+05 1.000000000000000000e+02
7.548493572533453116e+05 1.778279410038922776e+02
9.155314584966344992e+05 3.162277660168379612e+02
