# Temperature (K), Pressure (bars)
1.815110010345675619e+03 9.999999999999999547e-07
1.828332194335429449e+03 1.778279410038922901e-06
1.841554378333654768e+03 3.162277660168379191e-06
1.856398166149065901e+03 5.623413251903491208e-06
1.875747829853613894e+03 1.000000000000000082e-05
1.901725002454156765e+03 1.778279410038922901e-05
1.934346035493183081e+03 3.162277660168379530e-05
1.973135920848240858e+03 5.623413251903490700e-05
2.018597099649746724e+03 1.000000000000000048e-04
2.069908601174881369e+03 1.778279410038922698e-04
2.126006795379197229e+03 3.162277660168379394e-04
2.187652925233622227e+03 5.623413251903490971e-04
2.256018256758010921e+03 1.000000000000000021e-03
2.335247416021996287e+03 1.778279410038922752e-03
2.429101185591981448e+03 3.162277660168379394e-03
2.534079641394799182e+03 5.623413251903490971e-03
2.647064205451546513e+03 1.000000000000000021e-02
2.769261739400076294e+03 1.778279410038922925e-02
2.902513028736595061e+03 3.162277660168379134e-02
3.049381167469638513e+03 5.623413251903491145e-02
3.213215885868329224e+03 1.000000000000000056e-01
3.398080408883352902e+03 1.778279410038922925e-01
3.608094515730047533e+03 3.162277660168379412e-01
3.847880259812434815e+03 5.623413251903490728e-01
4.127625865164168317e+03 1.000000000000000000e+00
4.432882208679855466e+03 1.778279410038922759e+00
4.818380647596978633e+03 3.162277660168379523e+00
5.342432078002969320e+03 5.623413251903491172e+00
6.128190642316624690e+03 1.000000000000000000e+01
7.352709704774468264e+03 1.778279410038922848e+01
9.020485891679441920e+03 3.162277660168379256e+01
1.100329822005237475e+04 5.623413251903490817e+01
1.338984246576031001e+04 1.000000000000000000e+02
1.630348211015737797e+04 1.778279410038922776e+02
1.977848615290679663e+04 3.162277660168379612e+02
