# Temperature (K), Pressure (bars)
2.072051388350714660e+03 9.999999999999999547e-07
2.106618048342416387e+03 1.778279410038922901e-06
2.141184708334118113e+03 3.162277660168379191e-06
2.177400924958204541e+03 5.623413251903491208e-06
2.212073727602607050e+03 1.000000000000000082e-05
2.242153529795868508e+03 1.778279410038922901e-05
2.267433295688467297e+03 3.162277660168379530e-05
2.290374109623635377e+03 5.623413251903490700e-05
2.315219198830716778e+03 1.000000000000000048e-04
2.345373237299877928e+03 1.778279410038922698e-04
2.382828770248907404e+03 3.162277660168379394e-04
2.428924690471881604e+03 5.623413251903490971e-04
2.484617096603677055e+03 1.000000000000000021e-03
2.551554535833323371e+03 1.778279410038922752e-03
2.631221204295746702e+03 3.162277660168379394e-03
2.724659570482343042e+03 5.623413251903490971e-03
2.832866765238783955e+03 1.000000000000000021e-02
2.955655894586101567e+03 1.778279410038922925e-02
3.095501759511402724e+03 3.162277660168379134e-02
3.261050996408626816e+03 5.623413251903491145e-02
3.438785870955338396e+03 1.000000000000000056e-01
3.647823276538190385e+03 1.778279410038922925e-01
3.899094784127880757e+03 3.162277660168379412e-01
4.191125787411207057e+03 5.623413251903490728e-01
4.578975605152657408e+03 1.000000000000000000e+00
5.155701150124430569e+03 1.778279410038922759e+00
6.086624342936707762e+03 3.162277660168379523e+00
7.486689837867153074e+03 5.623413251903491172e+00
9.181863058962597279e+03 1.000000000000000000e+01
1.000000000000000000e+04 1.778279410038922848e+01
1.000000000000000000e+04 3.162277660168379256e+01
1.000000000000000000e+04 5.623413251903490817e+01
1.000000000000000000e+04 1.000000000000000000e+02
1.000000000000000000e+04 1.778279410038922776e+02
1.000000000000000000e+04 3.162277660168379612e+02
