# Temperature (K), Pressure (bars)
1.021023757760078752e+03 3.162277660168379394e-04
1.079862539349399640e+03 5.623413251903490971e-04
1.138701322544671029e+03 1.000000000000000021e-03
1.195608027365288990e+03 1.778279410038922752e-03
1.251879400476520914e+03 3.162277660168379394e-03
1.309149466513485322e+03 5.623413251903490971e-03
1.369286358482581363e+03 1.000000000000000021e-02
1.435782280205751249e+03 1.778279410038922925e-02
1.513154069626134969e+03 3.162277660168379134e-02
1.611171536249732981e+03 5.623413251903491145e-02
1.740368403634365450e+03 1.000000000000000056e-01
1.925824978030232387e+03 1.778279410038922925e-01
2.171099943684654590e+03 3.162277660168379412e-01
2.421786236884263417e+03 5.623413251903490728e-01
2.650509594776912763e+03 1.000000000000000000e+00
2.870058741079178162e+03 1.778279410038922759e+00
3.087656163178579845e+03 3.162277660168379523e+00
3.309166699459598931e+03 5.623413251903491172e+00
3.539967797027314191e+03 1.000000000000000000e+01
3.785639123763739917e+03 1.778279410038922848e+01
4.053944008923000183e+03 3.162277660168379256e+01
4.350037283645877324e+03 5.623413251903490817e+01
4.681076777306178883e+03 1.000000000000000000e+02
5.050597052262024590e+03 1.778279410038922776e+02
5.479714506635812540e+03 3.162277660168379612e+02
