# Temperature (K), Pressure (bars)
8.792804297634262412e+02 3.162277660168379394e-04
9.250411465884556037e+02 5.623413251903490971e-04
9.708018646120634685e+02 1.000000000000000021e-03
1.016815429600737275e+03 1.778279410038922752e-03
1.063447050184849104e+03 3.162277660168379394e-03
1.111282501191171605e+03 5.623413251903490971e-03
1.160627764118740970e+03 1.000000000000000021e-02
1.212643941900740401e+03 1.778279410038922925e-02
1.270272091868027019e+03 3.162277660168379134e-02
1.338058982949483834e+03 5.623413251903491145e-02
1.423370068875254674e+03 1.000000000000000056e-01
1.537209784480415465e+03 1.778279410038922925e-01
1.715253829129731685e+03 3.162277660168379412e-01
1.970566054033030468e+03 5.623413251903490728e-01
2.247476984507779889e+03 1.000000000000000000e+00
2.510072909445611458e+03 1.778279410038922759e+00
2.762092667096271725e+03 3.162277660168379523e+00
3.006766550229784116e+03 5.623413251903491172e+00
3.250580797766250271e+03 1.000000000000000000e+01
3.500809250574004636e+03 1.778279410038922848e+01
3.766261185749008291e+03 3.162277660168379256e+01
4.052509347701827210e+03 5.623413251903490817e+01
4.366311290518295209e+03 1.000000000000000000e+02
4.710782013344668485e+03 1.778279410038922776e+02
5.103906911384227897e+03 3.162277660168379612e+02
