# Temperature (K), Pressure (bars)
8.954164909388154001e+02 3.162277660168379530e-05
9.501650649921962213e+02 5.623413251903490700e-05
1.004913642899295269e+03 1.000000000000000048e-04
1.062423760875860125e+03 1.778279410038922698e-04
1.116547729877102938e+03 3.162277660168379394e-04
1.167963168810758589e+03 5.623413251903490971e-04
1.242623154925360041e+03 1.000000000000000021e-03
1.356788222500234042e+03 1.778279410038922752e-03
1.503012309704921790e+03 3.162277660168379394e-03
1.652571531107721285e+03 5.623413251903490971e-03
1.756902428850134129e+03 1.000000000000000021e-02
1.821133105204788535e+03 1.778279410038922925e-02
1.877764191809580097e+03 3.162277660168379134e-02
1.937595549550186661e+03 5.623413251903491145e-02
2.006021036338559043e+03 1.000000000000000056e-01
2.091792785763333541e+03 1.778279410038922925e-01
2.193202438807482395e+03 3.162277660168379412e-01
2.338157622590613755e+03 5.623413251903490728e-01
2.560944813532043099e+03 1.000000000000000000e+00
2.802915715823844039e+03 1.778279410038922759e+00
3.026379825698458717e+03 3.162277660168379523e+00
3.251683137287106547e+03 5.623413251903491172e+00
3.485057174900833161e+03 1.000000000000000000e+01
3.731741322086099444e+03 1.778279410038922848e+01
3.999160362098013138e+03 3.162277660168379256e+01
4.293041795011018621e+03 5.623413251903490817e+01
4.620453983149569467e+03 1.000000000000000000e+02
4.984876191178931549e+03 1.778279410038922776e+02
5.406503881639344399e+03 3.162277660168379612e+02
