# Temperature (K), Pressure (bars)
8.857595705901594556e+02 1.000000000000000082e-05
9.264776151518020697e+02 1.778279410038922901e-05
9.671936214142978088e+02 3.162277660168379530e-05
1.013060480097540449e+03 5.623413251903490700e-05
1.065536619521548573e+03 1.000000000000000048e-04
1.119509196698501455e+03 1.778279410038922698e-04
1.170434078740168388e+03 3.162277660168379394e-04
1.211327961913082163e+03 5.623413251903490971e-04
1.252712354856817456e+03 1.000000000000000021e-03
1.312321361313539683e+03 1.778279410038922752e-03
1.425564289492256648e+03 3.162277660168379394e-03
1.621582099535584575e+03 5.623413251903490971e-03
1.831414119065402019e+03 1.000000000000000021e-02
2.015235362121173239e+03 1.778279410038922925e-02
2.203417858715939929e+03 3.162277660168379134e-02
2.390304085055907763e+03 5.623413251903491145e-02
2.568163758489958127e+03 1.000000000000000056e-01
2.744257278779082299e+03 1.778279410038922925e-01
2.922174627580682227e+03 3.162277660168379412e-01
3.103466408440628584e+03 5.623413251903490728e-01
3.289992655708903385e+03 1.000000000000000000e+00
3.485350532049666072e+03 1.778279410038922759e+00
3.694162724993574102e+03 3.162277660168379523e+00
3.921325999221595339e+03 5.623413251903491172e+00
4.172200107775370270e+03 1.000000000000000000e+01
4.453180474199733908e+03 1.778279410038922848e+01
4.772694660695153289e+03 3.162277660168379256e+01
5.145678751117538013e+03 5.623413251903490817e+01
5.583222918704586846e+03 1.000000000000000000e+02
6.105732187222292850e+03 1.778279410038922776e+02
6.742589069483708954e+03 3.162277660168379612e+02
