# Temperature (K), Pressure (bars)
9.927380588310807070e+02 5.623413251903490700e-05
1.041511038265495699e+03 1.000000000000000048e-04
1.090284020145679278e+03 1.778279410038922698e-04
1.139809427088282519e+03 3.162277660168379394e-04
1.190821028131158073e+03 5.623413251903490971e-04
1.244371000843928414e+03 1.000000000000000021e-03
1.300661733628472348e+03 1.778279410038922752e-03
1.363714479991568169e+03 3.162277660168379394e-03
1.435358975324338644e+03 5.623413251903490971e-03
1.516868700709194627e+03 1.000000000000000021e-02
1.613431599007920113e+03 1.778279410038922925e-02
1.722977284717851489e+03 3.162277660168379134e-02
1.841224419649067841e+03 5.623413251903491145e-02
1.993974389130331019e+03 1.000000000000000056e-01
2.204134873445575977e+03 1.778279410038922925e-01
2.430808953534427928e+03 3.162277660168379412e-01
2.642068960126689035e+03 5.623413251903490728e-01
2.846593213986617229e+03 1.000000000000000000e+00
3.050550749877012549e+03 1.778279410038922759e+00
3.258525900272229137e+03 3.162277660168379523e+00
3.474972247183510262e+03 5.623413251903491172e+00
3.704898944941433911e+03 1.000000000000000000e+01
3.953744165941965548e+03 1.778279410038922848e+01
4.229352733485399767e+03 3.162277660168379256e+01
4.537117409053885240e+03 5.623413251903490817e+01
4.884994162998435058e+03 1.000000000000000000e+02
5.276552176625208631e+03 1.778279410038922776e+02
5.737516626252022434e+03 3.162277660168379612e+02
