# Temperature (K), Pressure (bars)
1.458923647105542841e+03 9.999999999999999547e-07
1.519134135190822690e+03 1.778279410038922901e-06
1.579344623279890129e+03 3.162277660168379191e-06
1.640026707358536441e+03 5.623413251903491208e-06
1.704052309794910343e+03 1.000000000000000082e-05
1.772170601055672250e+03 1.778279410038922901e-05
1.844717129981430844e+03 3.162277660168379530e-05
1.921931287733949375e+03 5.623413251903490700e-05
2.004183010800361899e+03 1.000000000000000048e-04
2.093171963507049441e+03 1.778279410038922698e-04
2.191802568650814464e+03 3.162277660168379394e-04
2.302596415829415037e+03 5.623413251903490971e-04
2.423994047595533630e+03 1.000000000000000021e-03
2.552713264643616640e+03 1.778279410038922752e-03
2.687693292606365048e+03 3.162277660168379394e-03
2.829941849857108991e+03 5.623413251903490971e-03
2.982453228265809230e+03 1.000000000000000021e-02
3.152428961595333476e+03 1.778279410038922925e-02
3.366193500302091252e+03 3.162277660168379134e-02
3.575545976620127476e+03 5.623413251903491145e-02
3.845508660246622640e+03 1.000000000000000056e-01
4.240392435675671550e+03 1.778279410038922925e-01
4.923966985396717064e+03 3.162277660168379412e-01
5.969860646645438464e+03 5.623413251903490728e-01
7.403130557074313401e+03 1.000000000000000000e+00
8.950163541142535905e+03 1.778279410038922759e+00
1.045534855018634335e+04 3.162277660168379523e+00
1.216077610737327268e+04 5.623413251903491172e+00
1.432779612397704295e+04 1.000000000000000000e+01
1.707371840884580524e+04 1.778279410038922848e+01
2.053894049952874047e+04 3.162277660168379256e+01
2.488502969350001877e+04 5.623413251903490817e+01
3.027479843912579599e+04 1.000000000000000000e+02
3.685105402620090172e+04 1.778279410038922776e+02
4.468955505649199040e+04 3.162277660168379612e+02
