# Temperature (K), Pressure (bars)
1.007014796750887513e+03 3.162277660168379394e-04
1.068804893974880315e+03 5.623413251903490971e-04
1.130594992478311951e+03 1.000000000000000021e-03
1.189955063112111247e+03 1.778279410038922752e-03
1.248914230459070041e+03 3.162277660168379394e-03
1.310976836819947266e+03 5.623413251903490971e-03
1.379583436104652037e+03 1.000000000000000021e-02
1.459323342910110568e+03 1.778279410038922925e-02
1.557196997291773187e+03 3.162277660168379134e-02
1.692473377423366173e+03 5.623413251903491145e-02
1.892884965601840804e+03 1.000000000000000056e-01
2.141433478930122419e+03 1.778279410038922925e-01
2.384115768218435278e+03 3.162277660168379412e-01
2.604395201198623454e+03 5.623413251903490728e-01
2.814033615252360050e+03 1.000000000000000000e+00
3.020230501104115319e+03 1.778279410038922759e+00
3.228806055171930893e+03 3.162277660168379523e+00
3.445007174505543844e+03 5.623413251903491172e+00
3.674043060820153187e+03 1.000000000000000000e+01
3.921297218929548762e+03 1.778279410038922848e+01
4.194624608380840073e+03 3.162277660168379256e+01
4.499060082436578341e+03 5.623413251903490817e+01
4.842251468618685976e+03 1.000000000000000000e+02
5.227788334435885190e+03 1.778279410038922776e+02
5.679985563617024127e+03 3.162277660168379612e+02
