# Temperature (K), Pressure (bars)
1.081827945981649464e+03 1.000000000000000021e-03
1.120925330325018194e+03 1.778279410038922752e-03
1.160022714280844184e+03 3.162277660168379394e-03
1.198018330559624701e+03 5.623413251903490971e-03
1.234150448854723209e+03 1.000000000000000021e-02
1.270022236438133859e+03 1.778279410038922925e-02
1.310870036311485137e+03 3.162277660168379134e-02
1.359651387521443439e+03 5.623413251903491145e-02
1.416211228432394819e+03 1.000000000000000056e-01
1.475180484618766059e+03 1.778279410038922925e-01
1.544985970780493517e+03 3.162277660168379412e-01
1.637473555910945834e+03 5.623413251903490728e-01
1.730076309570232752e+03 1.000000000000000000e+00
1.824987058254444491e+03 1.778279410038922759e+00
1.949705708185553476e+03 3.162277660168379523e+00
2.147309732656804499e+03 5.623413251903491172e+00
2.440880999100052577e+03 1.000000000000000000e+01
2.759312225540386862e+03 1.778279410038922848e+01
3.062337985485411082e+03 3.162277660168379256e+01
3.366470127954494274e+03 5.623413251903490817e+01
3.679472331084814869e+03 1.000000000000000000e+02
4.006920130806161524e+03 1.778279410038922776e+02
4.362832673299080852e+03 3.162277660168379612e+02
