# Temperature (K), Pressure (bars)
1.171964773633980030e+03 5.623413251903490700e-05
1.227728163865411261e+03 1.000000000000000048e-04
1.283491568461678071e+03 1.778279410038922698e-04
1.423558325725997520e+03 3.162277660168379394e-04
1.550625525451650901e+03 5.623413251903490971e-04
1.615825118927894209e+03 1.000000000000000021e-03
1.664332915572673755e+03 1.778279410038922752e-03
1.710230235356619460e+03 3.162277660168379394e-03
1.750939954131624063e+03 5.623413251903490971e-03
1.793441548339015299e+03 1.000000000000000021e-02
1.832572179706281077e+03 1.778279410038922925e-02
1.862640564443853464e+03 3.162277660168379134e-02
1.890969113305479141e+03 5.623413251903491145e-02
1.926320452519727496e+03 1.000000000000000056e-01
1.970752059773658402e+03 1.778279410038922925e-01
2.033816567663046499e+03 3.162277660168379412e-01
2.111184794555628287e+03 5.623413251903490728e-01
2.234622165129875157e+03 1.000000000000000000e+00
2.458604771097122011e+03 1.778279410038922759e+00
2.723096918980090322e+03 3.162277660168379523e+00
2.971869266224586681e+03 5.623413251903491172e+00
3.219264303119682154e+03 1.000000000000000000e+01
3.472262933077587149e+03 1.778279410038922848e+01
3.738560362970475126e+03 3.162277660168379256e+01
4.024785242836576799e+03 5.623413251903490817e+01
4.337865466080053011e+03 1.000000000000000000e+02
4.681096307989468187e+03 1.778279410038922776e+02
5.072141841256982843e+03 3.162277660168379612e+02
