# Temperature (K), Pressure (bars)
9.271510779635733570e+02 1.000000000000000048e-04
9.818270045278451335e+02 1.778279410038922698e-04
1.036502931054266128e+03 3.162277660168379394e-04
1.088295183148732121e+03 5.623413251903490971e-04
1.136248688224766511e+03 1.000000000000000021e-03
1.175229501202040638e+03 1.778279410038922752e-03
1.206959713010816131e+03 3.162277660168379394e-03
1.237545923570163495e+03 5.623413251903490971e-03
1.268783647102520490e+03 1.000000000000000021e-02
1.303276624073005451e+03 1.778279410038922925e-02
1.343732212749212067e+03 3.162277660168379134e-02
1.389141285196177478e+03 5.623413251903491145e-02
1.434396352773717354e+03 1.000000000000000056e-01
1.495974921088094106e+03 1.778279410038922925e-01
1.602754860431904945e+03 3.162277660168379412e-01
1.772490765184444854e+03 5.623413251903490728e-01
2.012093095748450196e+03 1.000000000000000000e+00
2.287459014126526654e+03 1.778279410038922759e+00
2.560481667372041102e+03 3.162277660168379523e+00
2.824547851483157501e+03 5.623413251903491172e+00
3.082207690987679598e+03 1.000000000000000000e+01
3.340531016040039958e+03 1.778279410038922848e+01
3.609254138606519064e+03 3.162277660168379256e+01
3.894613603991080709e+03 5.623413251903490817e+01
4.203596046650685821e+03 1.000000000000000000e+02
4.539569750447722981e+03 1.778279410038922776e+02
4.919273470591688238e+03 3.162277660168379612e+02
