# Temperature (K), Pressure (bars)
2.271243180770401068e+03 9.999999999999999547e-07
2.285789282636829739e+03 1.778279410038922901e-06
2.300335384504130616e+03 3.162277660168379191e-06
2.321170882611505931e+03 5.623413251903491208e-06
2.345939315445376451e+03 1.000000000000000082e-05
2.371862656916688138e+03 1.778279410038922901e-05
2.398482140920535130e+03 3.162277660168379530e-05
2.425439037233277759e+03 5.623413251903490700e-05
2.452615987348707677e+03 1.000000000000000048e-04
2.479194007621108085e+03 1.778279410038922698e-04
2.503863441908316418e+03 3.162277660168379394e-04
2.525936932814741340e+03 5.623413251903490971e-04
2.545752053141631222e+03 1.000000000000000021e-03
2.564862361180554672e+03 1.778279410038922752e-03
2.585611163503490388e+03 3.162277660168379394e-03
2.611024116785779825e+03 5.623413251903490971e-03
2.642248863407930003e+03 1.000000000000000021e-02
2.683206222335221355e+03 1.778279410038922925e-02
2.733347873828789034e+03 3.162277660168379134e-02
2.805774885463813007e+03 5.623413251903491145e-02
2.923447083967291292e+03 1.000000000000000056e-01
3.069430289178691964e+03 1.778279410038922925e-01
3.226456200225309658e+03 3.162277660168379412e-01
3.400621825283013095e+03 5.623413251903490728e-01
3.594966031274295801e+03 1.000000000000000000e+00
3.811724861262246122e+03 1.778279410038922759e+00
4.053274730206217100e+03 3.162277660168379523e+00
4.324367806098665824e+03 5.623413251903491172e+00
4.633501795045752260e+03 1.000000000000000000e+01
4.991737635840476287e+03 1.778279410038922848e+01
5.422217843942511536e+03 3.162277660168379256e+01
5.955728828168033942e+03 5.623413251903490817e+01
6.644701821967746582e+03 1.000000000000000000e+02
7.578673058870478599e+03 1.778279410038922776e+02
8.886905117009546302e+03 3.162277660168379612e+02
