# Temperature (K), Pressure (bars)
7.893213085823274469e+02 5.623413251903490971e-04
8.276976520540443971e+02 1.000000000000000021e-03
8.660739962892533867e+02 1.778279410038922752e-03
9.042589905191166508e+02 3.162277660168379394e-03
9.426495873918115649e+02 5.623413251903490971e-03
9.818567348118260725e+02 1.000000000000000021e-02
1.022482223941074039e+03 1.778279410038922925e-02
1.066252800185341357e+03 3.162277660168379134e-02
1.116786441532928620e+03 5.623413251903491145e-02
1.179656152451882917e+03 1.000000000000000056e-01
1.262023884045737304e+03 1.778279410038922925e-01
1.375854458757773727e+03 3.162277660168379412e-01
1.550101624398556623e+03 5.623413251903490728e-01
1.792874948569086655e+03 1.000000000000000000e+00
2.067979353894278574e+03 1.778279410038922759e+00
2.349979530658037220e+03 3.162277660168379523e+00
2.630831764859648501e+03 5.623413251903491172e+00
2.904690746407068673e+03 1.000000000000000000e+01
3.174984194048853624e+03 1.778279410038922848e+01
3.450564190267550657e+03 3.162277660168379256e+01
3.737967785656410797e+03 5.623413251903490817e+01
4.044781020550065477e+03 1.000000000000000000e+02
4.374927360448724357e+03 1.778279410038922776e+02
4.744157842485838955e+03 3.162277660168379612e+02
