# Temperature (K), Pressure (bars)
2.264433606355600205e+03 9.999999999999999547e-07
2.280207680866209557e+03 1.778279410038922901e-06
2.295981755377776608e+03 3.162277660168379191e-06
2.312537215486569949e+03 5.623413251903491208e-06
2.330443244648121436e+03 1.000000000000000082e-05
2.349680390158292994e+03 1.778279410038922901e-05
2.370495190381926932e+03 3.162277660168379530e-05
2.392158197054021912e+03 5.623413251903490700e-05
2.413203531386932809e+03 1.000000000000000048e-04
2.432960604496416181e+03 1.778279410038922698e-04
2.451875554935541004e+03 3.162277660168379394e-04
2.471501232329836512e+03 5.623413251903490971e-04
2.494032225380678938e+03 1.000000000000000021e-03
2.522097443341883263e+03 1.778279410038922752e-03
2.557516700916549325e+03 3.162277660168379394e-03
2.602960120545798418e+03 5.623413251903490971e-03
2.659426234252622635e+03 1.000000000000000021e-02
2.733940841172835462e+03 1.778279410038922925e-02
2.837988464839047992e+03 3.162277660168379134e-02
2.965278859189395007e+03 5.623413251903491145e-02
3.106765947093467730e+03 1.000000000000000056e-01
3.264275110342142398e+03 1.778279410038922925e-01
3.441159140604530876e+03 3.162277660168379412e-01
3.641476185642358814e+03 5.623413251903490728e-01
3.869130581146142504e+03 1.000000000000000000e+00
4.129089767163693978e+03 1.778279410038922759e+00
4.430299884891157490e+03 3.162277660168379523e+00
4.774781111020394746e+03 5.623413251903491172e+00
5.203499232930008475e+03 1.000000000000000000e+01
5.764057116480558761e+03 1.778279410038922848e+01
6.543233744915598436e+03 3.162277660168379256e+01
7.694025775274783882e+03 5.623413251903490817e+01
9.331739984401048787e+03 1.000000000000000000e+02
1.136259210747727775e+04 1.778279410038922776e+02
1.378171377190718522e+04 3.162277660168379612e+02
