# Temperature (K), Pressure (bars)
8.548403247322362404e+02 3.162277660168379394e-04
9.028003177348617783e+02 5.623413251903490971e-04
9.507603122786886161e+02 1.000000000000000021e-03
9.985218450733600548e+02 1.778279410038922752e-03
1.046331098344549901e+03 3.162277660168379394e-03
1.094744673029254727e+03 5.623413251903490971e-03
1.144399158558089312e+03 1.000000000000000021e-02
1.196582308472071873e+03 1.778279410038922925e-02
1.254208240173848253e+03 3.162277660168379134e-02
1.322031393564728205e+03 5.623413251903491145e-02
1.407391469844710173e+03 1.000000000000000056e-01
1.529284091294060090e+03 1.778279410038922925e-01
1.696054461726848103e+03 3.162277660168379412e-01
1.913386028255888959e+03 5.623413251903490728e-01
2.182354834037252658e+03 1.000000000000000000e+00
2.458591327481914959e+03 1.778279410038922759e+00
2.715854353057617118e+03 3.162277660168379523e+00
2.964589486146955551e+03 5.623413251903491172e+00
3.211313683643586046e+03 1.000000000000000000e+01
3.463228519427724677e+03 1.778279410038922848e+01
3.729210401517574155e+03 3.162277660168379256e+01
4.015055730096792104e+03 5.623413251903490817e+01
4.327578764019097434e+03 1.000000000000000000e+02
4.670014231198259949e+03 1.778279410038922776e+02
5.060005392198729169e+03 3.162277660168379612e+02
