# Temperature (K), Pressure (bars)
9.325094856393310465e+02 9.999999999999999547e-07
9.764249876577318901e+02 1.778279410038922901e-06
1.020340489687075433e+03 3.162277660168379191e-06
1.064132683315440772e+03 5.623413251903491208e-06
1.108452962115028413e+03 1.000000000000000082e-05
1.152692380148992925e+03 1.778279410038922901e-05
1.197673655247419902e+03 3.162277660168379530e-05
1.246284911169524321e+03 5.623413251903490700e-05
1.302987370401910994e+03 1.000000000000000048e-04
1.376241222847966128e+03 1.778279410038922698e-04
1.462198357491510251e+03 3.162277660168379394e-04
1.553581252381414743e+03 5.623413251903490971e-04
1.654509515832362922e+03 1.000000000000000021e-03
1.757103603758552254e+03 1.778279410038922752e-03
1.853480374471337427e+03 3.162277660168379394e-03
1.961091778225900271e+03 5.623413251903490971e-03
2.101954873207957917e+03 1.000000000000000021e-02
2.266658565754346000e+03 1.778279410038922925e-02
2.433172546548275022e+03 3.162277660168379134e-02
2.597402854638284225e+03 5.623413251903491145e-02
2.762891218060678057e+03 1.000000000000000056e-01
2.932430365596615047e+03 1.778279410038922925e-01
3.107607641969202632e+03 3.162277660168379412e-01
3.289459163153543159e+03 5.623413251903490728e-01
3.480256718516164710e+03 1.000000000000000000e+00
3.684083601990711941e+03 1.778279410038922759e+00
3.905944344402307252e+03 3.162277660168379523e+00
4.151530691476746142e+03 5.623413251903491172e+00
4.427770154251057647e+03 1.000000000000000000e+01
4.743923354379196098e+03 1.778279410038922848e+01
5.115282404548667728e+03 3.162277660168379256e+01
5.557435005985776115e+03 5.623413251903490817e+01
6.096761281864707598e+03 1.000000000000000000e+02
6.775416265818669672e+03 1.778279410038922776e+02
7.663050220067490955e+03 3.162277660168379612e+02
