# Temperature (K), Pressure (bars)
1.981420503001623274e+03 9.999999999999999547e-07
1.992506664101602837e+03 1.778279410038922901e-06
2.003592825202131280e+03 3.162277660168379191e-06
2.023096013353345370e+03 5.623413251903491208e-06
2.050441231064854946e+03 1.000000000000000082e-05
2.082037259130155235e+03 1.778279410038922901e-05
2.115499954774545131e+03 3.162277660168379530e-05
2.149007751250752335e+03 5.623413251903490700e-05
2.181512283324871532e+03 1.000000000000000048e-04
2.213448216663101448e+03 1.778279410038922698e-04
2.246892526087591250e+03 3.162277660168379394e-04
2.284294628121101596e+03 5.623413251903490971e-04
2.327785134877447035e+03 1.000000000000000021e-03
2.378424825284775125e+03 1.778279410038922752e-03
2.438297727840164498e+03 3.162277660168379394e-03
2.507846501214115051e+03 5.623413251903490971e-03
2.592249182932395343e+03 1.000000000000000021e-02
2.699298205254262939e+03 1.778279410038922925e-02
2.822221274913001707e+03 3.162277660168379134e-02
2.956147969771874614e+03 5.623413251903491145e-02
3.105448771264487732e+03 1.000000000000000056e-01
3.273107878543160950e+03 1.778279410038922925e-01
3.461670969003027494e+03 3.162277660168379412e-01
3.672787928975722025e+03 5.623413251903490728e-01
3.908919636832341894e+03 1.000000000000000000e+00
4.176527193223842914e+03 1.778279410038922759e+00
4.488092439748257675e+03 3.162277660168379523e+00
4.851314020888142295e+03 5.623413251903491172e+00
5.312887732916475215e+03 1.000000000000000000e+01
5.938442466752145265e+03 1.778279410038922848e+01
6.856126638632092181e+03 3.162277660168379256e+01
8.227084283677852000e+03 5.623413251903490817e+01
1.004043409261597844e+04 1.000000000000000000e+02
1.222397913573790356e+04 1.778279410038922776e+02
1.482958510329973433e+04 3.162277660168379612e+02
