# Temperature (K), Pressure (bars)
2.328735781930702615e+03 9.999999999999999547e-07
2.348269143450717365e+03 1.778279410038922901e-06
2.367802504970732116e+03 3.162277660168379191e-06
2.393943034651003927e+03 5.623413251903491208e-06
2.424170855780956117e+03 1.000000000000000082e-05
2.456742533291029758e+03 1.778279410038922901e-05
2.490792320983113768e+03 3.162277660168379530e-05
2.524673234089456400e+03 5.623413251903490700e-05
2.557328808588044012e+03 1.000000000000000048e-04
2.584920413971887683e+03 1.778279410038922698e-04
2.600465745734351003e+03 3.162277660168379394e-04
2.604814172111174685e+03 5.623413251903490971e-04
2.613759702636049951e+03 1.000000000000000021e-03
2.642123661524940871e+03 1.778279410038922752e-03
2.691815234070194947e+03 3.162277660168379394e-03
2.755991483339611023e+03 5.623413251903490971e-03
2.829972254149815853e+03 1.000000000000000021e-02
2.903439656225602448e+03 1.778279410038922925e-02
2.988239113555102904e+03 3.162277660168379134e-02
3.116833710241026893e+03 5.623413251903491145e-02
3.277753539673809428e+03 1.000000000000000056e-01
3.459684373852952376e+03 1.778279410038922925e-01
3.657706146462414836e+03 3.162277660168379412e-01
3.888176423035969947e+03 5.623413251903490728e-01
4.160834079183930044e+03 1.000000000000000000e+00
4.477898029743410007e+03 1.778279410038922759e+00
4.885194371467945530e+03 3.162277660168379523e+00
5.454675758765822138e+03 5.623413251903491172e+00
6.335522498641850689e+03 1.000000000000000000e+01
7.682515980209986083e+03 1.778279410038922848e+01
9.426422044789962456e+03 3.162277660168379256e+01
1.000000000000000000e+04 5.623413251903490817e+01
1.000000000000000000e+04 1.000000000000000000e+02
1.000000000000000000e+04 1.778279410038922776e+02
1.000000000000000000e+04 3.162277660168379612e+02
