# Temperature (K), Pressure (bars)
9.749242632254498631e+02 5.623413251903490700e-05
1.021958942173635478e+03 1.000000000000000048e-04
1.068993623354884221e+03 1.778279410038922698e-04
1.117731664569200575e+03 3.162277660168379394e-04
1.167850048212851334e+03 5.623413251903490971e-04
1.220160464727011686e+03 1.000000000000000021e-03
1.274747592744984559e+03 1.778279410038922752e-03
1.332079652143988596e+03 3.162277660168379394e-03
1.394110341455541175e+03 5.623413251903490971e-03
1.465009084127458664e+03 1.000000000000000021e-02
1.549689367640772844e+03 1.778279410038922925e-02
1.658378077111775156e+03 3.162277660168379134e-02
1.791668232164730625e+03 5.623413251903491145e-02
1.959767940498768667e+03 1.000000000000000056e-01
2.178330351525104106e+03 1.778279410038922925e-01
2.409610562009110708e+03 3.162277660168379412e-01
2.623779341491697778e+03 5.623413251903490728e-01
2.829940749450058775e+03 1.000000000000000000e+00
3.034676101637877764e+03 1.778279410038922759e+00
3.243061098133280211e+03 3.162277660168379523e+00
3.459682174492278136e+03 5.623413251903491172e+00
3.689482535429847758e+03 1.000000000000000000e+01
3.937823853012646850e+03 1.778279410038922848e+01
4.212513800680033455e+03 3.162277660168379256e+01
4.518922399974219843e+03 5.623413251903490817e+01
4.864857903736914523e+03 1.000000000000000000e+02
5.254038545883818188e+03 1.778279410038922776e+02
5.711372390159009228e+03 3.162277660168379612e+02
