# Temperature (K), Pressure (bars)
2.163523801590069070e+03 9.999999999999999547e-07
2.184735389857780319e+03 1.778279410038922901e-06
2.205946978125492024e+03 3.162277660168379191e-06
2.231532615942922348e+03 5.623413251903491208e-06
2.259878131627520816e+03 1.000000000000000082e-05
2.288477509719573845e+03 1.778279410038922901e-05
2.315371050734775963e+03 3.162277660168379530e-05
2.339001567098441683e+03 5.623413251903490700e-05
2.360405787597039762e+03 1.000000000000000048e-04
2.383001597449132987e+03 1.778279410038922698e-04
2.410448111300688652e+03 3.162277660168379394e-04
2.445204712824709077e+03 5.623413251903490971e-04
2.488347848497569885e+03 1.000000000000000021e-03
2.541778063134920103e+03 1.778279410038922752e-03
2.607138078123410651e+03 3.162277660168379394e-03
2.690159158476810717e+03 5.623413251903490971e-03
2.796879806013340840e+03 1.000000000000000021e-02
2.921376089113797661e+03 1.778279410038922925e-02
3.059822921291843613e+03 3.162277660168379134e-02
3.216669892386311403e+03 5.623413251903491145e-02
3.398865054234964191e+03 1.000000000000000056e-01
3.595627744605543739e+03 1.778279410038922925e-01
3.828985292183387628e+03 3.162277660168379412e-01
4.100307406138282204e+03 5.623413251903490728e-01
4.434566948450805285e+03 1.000000000000000000e+00
4.892528265224772440e+03 1.778279410038922759e+00
5.579546704689673788e+03 3.162277660168379523e+00
6.613081151162718925e+03 5.623413251903491172e+00
8.118569983131675144e+03 1.000000000000000000e+01
9.887688127575165709e+03 1.778279410038922848e+01
1.000000000000000000e+04 3.162277660168379256e+01
1.000000000000000000e+04 5.623413251903490817e+01
1.000000000000000000e+04 1.000000000000000000e+02
1.000000000000000000e+04 1.778279410038922776e+02
1.000000000000000000e+04 3.162277660168379612e+02
