# Temperature (K), Pressure (bars)
1.885433678309764446e+03 9.999999999999999547e-07
1.905007437708933139e+03 1.778279410038922901e-06
1.924581197108102288e+03 3.162277660168379191e-06
1.946956866413811440e+03 5.623413251903491208e-06
1.973759506769564268e+03 1.000000000000000082e-05
2.005935414296365707e+03 1.778279410038922901e-05
2.042814234056718078e+03 3.162277660168379530e-05
2.082585978922029426e+03 5.623413251903490700e-05
2.125112012669383148e+03 1.000000000000000048e-04
2.171444314439365826e+03 1.778279410038922698e-04
2.222251852876490375e+03 3.162277660168379394e-04
2.279219270915713878e+03 5.623413251903490971e-04
2.343961292287759534e+03 1.000000000000000021e-03
2.419220745019589231e+03 1.778279410038922752e-03
2.508972876059106056e+03 3.162277660168379394e-03
2.611806794939997872e+03 5.623413251903490971e-03
2.724707598636383864e+03 1.000000000000000021e-02
2.848310396755174679e+03 1.778279410038922925e-02
2.984972637441003826e+03 3.162277660168379134e-02
3.138439464348386991e+03 5.623413251903491145e-02
3.315387479607550176e+03 1.000000000000000056e-01
3.505293197505177886e+03 1.778279410038922925e-01
3.717526208749659872e+03 3.162277660168379412e-01
3.964246413319161547e+03 5.623413251903490728e-01
4.247990990293695177e+03 1.000000000000000000e+00
4.599732532535135761e+03 1.778279410038922759e+00
5.075747393611465668e+03 3.162277660168379523e+00
5.789890185788164672e+03 5.623413251903491172e+00
6.924542772104398864e+03 1.000000000000000000e+01
8.511917394478790811e+03 1.778279410038922848e+01
1.000000000000000000e+04 3.162277660168379256e+01
1.000000000000000000e+04 5.623413251903490817e+01
1.000000000000000000e+04 1.000000000000000000e+02
1.000000000000000000e+04 1.778279410038922776e+02
1.000000000000000000e+04 3.162277660168379612e+02
