# Temperature (K), Pressure (bars)
8.957971187005307456e+02 3.162277660168379530e-05
9.518979524499570744e+02 5.623413251903490700e-05
1.007998786598084848e+03 1.000000000000000048e-04
1.053085071331069003e+03 1.778279410038922698e-04
1.087151716762054548e+03 3.162277660168379394e-04
1.117638383720479624e+03 5.623413251903490971e-04
1.148354271206496378e+03 1.000000000000000021e-03
1.178948077891183402e+03 1.778279410038922752e-03
1.210109941945390347e+03 3.162277660168379394e-03
1.241994303561571087e+03 5.623413251903490971e-03
1.272661000491803179e+03 1.000000000000000021e-02
1.305343930424729251e+03 1.778279410038922925e-02
1.340284474089246714e+03 3.162277660168379134e-02
1.383770740082849443e+03 5.623413251903491145e-02
1.460818857893707218e+03 1.000000000000000056e-01
1.578184544967978354e+03 1.778279410038922925e-01
1.732790043163233122e+03 3.162277660168379412e-01
1.948109298909809468e+03 5.623413251903490728e-01
2.219157753836308530e+03 1.000000000000000000e+00
2.493398160318361988e+03 1.778279410038922759e+00
2.748553116521573429e+03 3.162277660168379523e+00
2.994485862207308401e+03 5.623413251903491172e+00
3.238588659121039200e+03 1.000000000000000000e+01
3.488799900747028460e+03 1.778279410038922848e+01
3.754452744087525843e+03 3.162277660168379256e+01
4.040705194519811812e+03 5.623413251903490817e+01
4.354263258077113278e+03 1.000000000000000000e+02
4.698298320467568374e+03 1.778279410038922776e+02
5.090813849771217065e+03 3.162277660168379612e+02
