# Temperature (K), Pressure (bars)
2.244462283305052551e+03 5.623413251903491208e-06
2.255485584197132084e+03 1.000000000000000082e-05
2.266532828029913617e+03 1.778279410038922901e-05
2.281373873445178106e+03 3.162277660168379530e-05
2.299854786184083423e+03 5.623413251903490700e-05
2.322434136746553577e+03 1.000000000000000048e-04
2.351934142608089132e+03 1.778279410038922698e-04
2.391463937256084137e+03 3.162277660168379394e-04
2.442869513351034584e+03 5.623413251903490971e-04
2.504912425731954499e+03 1.000000000000000021e-03
2.574528246985662463e+03 1.778279410038922752e-03
2.649144154155343585e+03 3.162277660168379394e-03
2.724898488919429838e+03 5.623413251903490971e-03
2.797205131334334055e+03 1.000000000000000021e-02
2.860540251661692309e+03 1.778279410038922925e-02
2.916235301074148083e+03 3.162277660168379134e-02
2.967887954940805685e+03 5.623413251903491145e-02
3.034443896561037491e+03 1.000000000000000056e-01
3.148184162839774217e+03 1.778279410038922925e-01
3.301774282257660161e+03 3.162277660168379412e-01
3.475637883028092801e+03 5.623413251903490728e-01
3.671909034557260838e+03 1.000000000000000000e+00
3.894963219823609052e+03 1.778279410038922759e+00
4.148655945686700761e+03 3.162277660168379523e+00
4.438411567620506503e+03 5.623413251903491172e+00
4.774371283186608707e+03 1.000000000000000000e+01
5.168259818851393902e+03 1.778279410038922848e+01
5.655435700579637341e+03 3.162277660168379256e+01
6.285386896976086973e+03 5.623413251903490817e+01
7.145459658933353239e+03 1.000000000000000000e+02
8.369922252296037186e+03 1.778279410038922776e+02
1.006270779690326890e+04 3.162277660168379612e+02
