# Temperature (K), Pressure (bars)
2.227371422061283738e+03 9.999999999999999547e-07
2.247597027807888935e+03 1.778279410038922901e-06
2.267822633554493677e+03 3.162277660168379191e-06
2.295585229647448159e+03 5.623413251903491208e-06
2.328147628037096183e+03 1.000000000000000082e-05
2.363500571103606944e+03 1.778279410038922901e-05
2.402704358371762282e+03 3.162277660168379530e-05
2.446089309416717697e+03 5.623413251903490700e-05
2.493174198097313365e+03 1.000000000000000048e-04
2.542405226557808419e+03 1.778279410038922698e-04
2.592087737785788704e+03 3.162277660168379394e-04
2.640352557120249458e+03 5.623413251903490971e-04
2.684934619681509957e+03 1.000000000000000021e-03
2.724309607766556383e+03 1.778279410038922752e-03
2.758192224469090434e+03 3.162277660168379394e-03
2.789728523195953585e+03 5.623413251903490971e-03
2.823515884664335772e+03 1.000000000000000021e-02
2.867954602209844325e+03 1.778279410038922925e-02
2.923335792221097108e+03 3.162277660168379134e-02
3.005154347208790114e+03 5.623413251903491145e-02
3.139058067729528375e+03 1.000000000000000056e-01
3.303192273711392772e+03 1.778279410038922925e-01
3.481619426676335479e+03 3.162277660168379412e-01
3.686723299118740215e+03 5.623413251903490728e-01
3.923629031382581616e+03 1.000000000000000000e+00
4.198297973598277167e+03 1.778279410038922759e+00
4.522422411802266652e+03 3.162277660168379523e+00
4.897628426534748542e+03 5.623413251903491172e+00
5.378900946335988920e+03 1.000000000000000000e+01
6.036435507677147143e+03 1.778279410038922848e+01
6.997893894253829785e+03 3.162277660168379256e+01
8.429495429650058213e+03 5.623413251903490817e+01
1.000000000000000000e+04 1.000000000000000000e+02
1.000000000000000000e+04 1.778279410038922776e+02
1.000000000000000000e+04 3.162277660168379612e+02
