# Temperature (K), Pressure (bars)
1.809066011002867072e+03 9.999999999999999547e-07
1.824428500894507124e+03 1.778279410038922901e-06
1.839790990786146949e+03 3.162277660168379191e-06
1.857472464468485214e+03 5.623413251903491208e-06
1.879620330837451320e+03 1.000000000000000082e-05
1.908911383029967283e+03 1.778279410038922901e-05
1.945075043971268542e+03 3.162277660168379530e-05
1.987630210375134993e+03 5.623413251903490700e-05
2.037056678342958094e+03 1.000000000000000048e-04
2.091726055867550258e+03 1.778279410038922698e-04
2.150388656645307492e+03 3.162277660168379394e-04
2.213175354235295345e+03 5.623413251903490971e-04
2.282278454214535941e+03 1.000000000000000021e-03
2.363886117381251097e+03 1.778279410038922752e-03
2.460894298680697375e+03 3.162277660168379394e-03
2.569332706888881603e+03 5.623413251903490971e-03
2.686788865006532433e+03 1.000000000000000021e-02
2.814221671145770415e+03 1.778279410038922925e-02
2.953026413027865146e+03 3.162277660168379134e-02
3.105345807950989183e+03 5.623413251903491145e-02
3.274572956510707627e+03 1.000000000000000056e-01
3.467701893317906524e+03 1.778279410038922925e-01
3.668765006880423243e+03 3.162277660168379412e-01
3.900936171267073860e+03 5.623413251903490728e-01
4.174441082864740565e+03 1.000000000000000000e+00
4.495821220965815883e+03 1.778279410038922759e+00
4.911019819751029900e+03 3.162277660168379523e+00
5.495096554438073326e+03 5.623413251903491172e+00
6.385536090158463594e+03 1.000000000000000000e+01
7.739004228220725963e+03 1.778279410038922848e+01
9.492257483983219572e+03 3.162277660168379256e+01
1.000000000000000000e+04 5.623413251903490817e+01
1.000000000000000000e+04 1.000000000000000000e+02
1.000000000000000000e+04 1.778279410038922776e+02
1.000000000000000000e+04 3.162277660168379612e+02
