# Temperature (K), Pressure (bars)
1.368954296853273490e+03 3.162277660168379394e-04
1.398629463661776072e+03 5.623413251903490971e-04
1.428304632724781413e+03 1.000000000000000021e-03
1.465221087656947475e+03 1.778279410038922752e-03
1.521353594708219134e+03 3.162277660168379394e-03
1.587852161234276991e+03 5.623413251903490971e-03
1.647253816479046918e+03 1.000000000000000021e-02
1.699971285638744803e+03 1.778279410038922925e-02
1.753542093242892861e+03 3.162277660168379134e-02
1.811093495148067859e+03 5.623413251903491145e-02
1.873662806409899531e+03 1.000000000000000056e-01
1.944514989328969932e+03 1.778279410038922925e-01
2.031319331284618329e+03 3.162277660168379412e-01
2.138595261067379397e+03 5.623413251903490728e-01
2.276970756311410696e+03 1.000000000000000000e+00
2.476004335983136571e+03 1.778279410038922759e+00
2.727482827573347549e+03 3.162277660168379523e+00
2.982195751042023403e+03 5.623413251903491172e+00
3.228527580157704506e+03 1.000000000000000000e+01
3.480906674321304308e+03 1.778279410038922848e+01
3.747185603154003729e+03 3.162277660168379256e+01
4.033642978441502237e+03 5.623413251903490817e+01
4.347161349229194457e+03 1.000000000000000000e+02
4.691123834556913607e+03 1.778279410038922776e+02
5.083074471977871326e+03 3.162277660168379612e+02
