# Temperature (K), Pressure (bars)
8.049862335575185170e+02 3.162277660168379394e-04
8.525818044251914216e+02 5.623413251903490971e-04
9.001773768959251356e+02 1.000000000000000021e-03
9.462655628901444516e+02 1.778279410038922752e-03
9.920666130657195936e+02 3.162277660168379394e-03
1.038579866134100030e+03 5.623413251903490971e-03
1.086492410166325044e+03 1.000000000000000021e-02
1.137999833910343568e+03 1.778279410038922925e-02
1.196963049939703524e+03 3.162277660168379134e-02
1.268122427033778422e+03 5.623413251903491145e-02
1.358765022138261884e+03 1.000000000000000056e-01
1.478009225703865923e+03 1.778279410038922925e-01
1.653211182145135353e+03 3.162277660168379412e-01
1.900394514129558729e+03 5.623413251903490728e-01
2.178298392629971204e+03 1.000000000000000000e+00
2.448404054471975087e+03 1.778279410038922759e+00
2.706830896517360088e+03 3.162277660168379523e+00
2.956497922672601362e+03 5.623413251903491172e+00
3.203525650983653122e+03 1.000000000000000000e+01
3.455425029158792313e+03 1.778279410038922848e+01
3.721310752563850656e+03 3.162277660168379256e+01
4.006801471342710556e+03 5.623413251903490817e+01
4.318639904841275893e+03 1.000000000000000000e+02
4.659931758658529361e+03 1.778279410038922776e+02
5.048352296138703423e+03 3.162277660168379612e+02
