# Temperature (K), Pressure (bars)
1.554311007135626141e+03 9.999999999999999547e-07
1.572620039139821529e+03 1.778279410038922901e-06
1.590929071144016916e+03 3.162277660168379191e-06
1.615043599312730521e+03 5.623413251903491208e-06
1.645986946414848262e+03 1.000000000000000082e-05
1.684599348724175115e+03 1.778279410038922901e-05
1.731863300326501758e+03 3.162277660168379530e-05
1.786625713478431862e+03 5.623413251903490700e-05
1.847941801850539605e+03 1.000000000000000048e-04
1.914674180898086206e+03 1.778279410038922698e-04
1.986029174503010381e+03 3.162277660168379394e-04
2.062385008438605837e+03 5.623413251903490971e-04
2.149116838743383596e+03 1.000000000000000021e-03
2.252691709805715618e+03 1.778279410038922752e-03
2.368218462003830609e+03 3.162277660168379394e-03
2.489627861352807486e+03 5.623413251903490971e-03
2.617515589534025366e+03 1.000000000000000021e-02
2.753283730510899659e+03 1.778279410038922925e-02
2.898544993170929047e+03 3.162277660168379134e-02
3.055371775900135162e+03 5.623413251903491145e-02
3.226761224623627641e+03 1.000000000000000056e-01
3.416839138527336218e+03 1.778279410038922925e-01
3.630403676757980520e+03 3.162277660168379412e-01
3.873264004592777383e+03 5.623413251903490728e-01
4.155119453694609547e+03 1.000000000000000000e+00
4.468542135041105212e+03 1.778279410038922759e+00
4.868324919524222423e+03 3.162277660168379523e+00
5.418589599570535938e+03 5.623413251903491172e+00
6.236501535631251500e+03 1.000000000000000000e+01
7.463170819817572919e+03 1.778279410038922848e+01
9.150642763784253475e+03 3.162277660168379256e+01
1.115356538135322444e+04 5.623413251903490817e+01
1.356928032463952331e+04 1.000000000000000000e+02
1.651678320321114734e+04 1.778279410038922776e+02
2.003002931181403255e+04 3.162277660168379612e+02
