# Temperature (K), Pressure (bars)
9.508537660498664081e+02 5.623413251903490971e-04
9.985401182799952267e+02 1.000000000000000021e-03
1.046226472038229076e+03 1.778279410038922752e-03
1.093483234563579117e+03 3.162277660168379394e-03
1.141096513129587720e+03 5.623413251903490971e-03
1.190114805701128262e+03 1.000000000000000021e-02
1.240879421823083021e+03 1.778279410038922925e-02
1.294695740785807629e+03 3.162277660168379134e-02
1.353694288081686864e+03 5.623413251903491145e-02
1.426273053626397768e+03 1.000000000000000056e-01
1.526410462572550841e+03 1.778279410038922925e-01
1.668162224937737619e+03 3.162277660168379412e-01
1.844405303212837225e+03 5.623413251903490728e-01
2.058468211923784565e+03 1.000000000000000000e+00
2.325287930781304112e+03 1.778279410038922759e+00
2.603120711373352606e+03 3.162277660168379523e+00
2.862850374561277476e+03 5.623413251903491172e+00
3.117546870158931597e+03 1.000000000000000000e+01
3.374489517752698703e+03 1.778279410038922848e+01
3.642386177692211277e+03 3.162277660168379256e+01
3.927688292826268480e+03 5.623413251903490817e+01
4.237412577798340863e+03 1.000000000000000000e+02
4.574937719627272600e+03 1.778279410038922776e+02
4.957247567326210628e+03 3.162277660168379612e+02
