# Temperature (K), Pressure (bars)
8.434198045381788233e+02 9.999999999999999547e-07
8.710593940913825008e+02 1.778279410038922901e-06
8.986989836692291647e+02 3.162277660168379191e-06
9.288846704105960725e+02 5.623413251903491208e-06
9.614705474594356929e+02 1.000000000000000082e-05
9.969968422812835342e+02 1.778279410038922901e-05
1.035843501722989004e+03 3.162277660168379530e-05
1.078237738695957432e+03 5.623413251903490700e-05
1.124495551300231227e+03 1.000000000000000048e-04
1.174267592086576542e+03 1.778279410038922698e-04
1.227784135517046934e+03 3.162277660168379394e-04
1.284884562230475694e+03 5.623413251903490971e-04
1.347354605388214850e+03 1.000000000000000021e-03
1.418098966832996666e+03 1.778279410038922752e-03
1.504507552313777751e+03 3.162277660168379394e-03
1.611291202344749308e+03 5.623413251903490971e-03
1.759682328039428512e+03 1.000000000000000021e-02
1.966895231372310491e+03 1.778279410038922925e-02
2.188593044151737558e+03 3.162277660168379134e-02
2.389445475521888511e+03 5.623413251903491145e-02
2.576186675610052589e+03 1.000000000000000056e-01
2.755706057481399512e+03 1.778279410038922925e-01
2.933205963100060671e+03 3.162277660168379412e-01
3.112353578128980189e+03 5.623413251903490728e-01
3.296672402805091224e+03 1.000000000000000000e+00
3.490350725458082252e+03 1.778279410038922759e+00
3.697929319117448358e+03 3.162277660168379523e+00
3.924163551854374873e+03 5.623413251903491172e+00
4.174313607969818804e+03 1.000000000000000000e+01
4.454718831340101133e+03 1.778279410038922848e+01
4.773861981166323858e+03 3.162277660168379256e+01
5.146735284402838261e+03 5.623413251903490817e+01
5.584864445074236755e+03 1.000000000000000000e+02
6.109548880781531807e+03 1.778279410038922776e+02
6.751446595044651986e+03 3.162277660168379612e+02
