# Temperature (K), Pressure (bars)
2.439267514138591650e+03 9.999999999999999547e-07
2.458768304153531972e+03 1.778279410038922901e-06
2.478269094168472293e+03 3.162277660168379191e-06
2.503956434897127565e+03 5.623413251903491208e-06
2.533471522127109438e+03 1.000000000000000082e-05
2.563228849028029799e+03 1.778279410038922901e-05
2.592942339344628635e+03 3.162277660168379530e-05
2.623014597659587707e+03 5.623413251903490700e-05
2.652977352536840954e+03 1.000000000000000048e-04
2.681549982810790425e+03 1.778279410038922698e-04
2.706595984256115116e+03 3.162277660168379394e-04
2.724343668951549716e+03 5.623413251903490971e-04
2.732773423958651165e+03 1.000000000000000021e-03
2.738615696258199023e+03 1.778279410038922752e-03
2.755415406483853985e+03 3.162277660168379394e-03
2.791373978106638333e+03 5.623413251903490971e-03
2.847067270646868110e+03 1.000000000000000021e-02
2.920204940924464154e+03 1.778279410038922925e-02
3.013889597546064579e+03 3.162277660168379134e-02
3.136275700224320644e+03 5.623413251903491145e-02
3.285347962227056087e+03 1.000000000000000056e-01
3.457176676092592061e+03 1.778279410038922925e-01
3.655734669998577829e+03 3.162277660168379412e-01
3.880458913775886231e+03 5.623413251903490728e-01
4.147230809793582921e+03 1.000000000000000000e+00
4.458295922961287033e+03 1.778279410038922759e+00
4.854461254407183333e+03 3.162277660168379523e+00
5.400125798286511781e+03 5.623413251903491172e+00
6.227775574965206943e+03 1.000000000000000000e+01
7.509991123714383320e+03 1.778279410038922848e+01
9.217388398243332631e+03 3.162277660168379256e+01
1.000000000000000000e+04 5.623413251903490817e+01
1.000000000000000000e+04 1.000000000000000000e+02
1.000000000000000000e+04 1.778279410038922776e+02
1.000000000000000000e+04 3.162277660168379612e+02
