# Temperature (K), Pressure (bars)
9.270361684826907549e+02 5.623413251903490700e-05
9.783969978737316069e+02 1.000000000000000048e-04
1.029757828773086885e+03 1.778279410038922698e-04
1.079982456925385577e+03 3.162277660168379394e-04
1.130818590775940038e+03 5.623413251903490971e-04
1.183439838498695281e+03 1.000000000000000021e-03
1.238314454602072146e+03 1.778279410038922752e-03
1.296178347470086692e+03 3.162277660168379394e-03
1.358749500951987329e+03 5.623413251903490971e-03
1.431569774952816715e+03 1.000000000000000021e-02
1.528220354299947758e+03 1.778279410038922925e-02
1.655501481671607735e+03 3.162277660168379134e-02
1.826527010302015469e+03 5.623413251903491145e-02
2.049024374320870265e+03 1.000000000000000056e-01
2.283815788091571903e+03 1.778279410038922925e-01
2.501440572433514717e+03 3.162277660168379412e-01
2.707092769745479018e+03 5.623413251903490728e-01
2.907309288963338986e+03 1.000000000000000000e+00
3.107640165768324096e+03 1.778279410038922759e+00
3.312905711538712694e+03 3.162277660168379523e+00
3.528054144190282841e+03 5.623413251903491172e+00
3.758136253590508204e+03 1.000000000000000000e+01
4.008481581361138979e+03 1.778279410038922848e+01
4.287162637392490979e+03 3.162277660168379256e+01
4.599429892370291782e+03 5.623413251903490817e+01
4.953572016754831566e+03 1.000000000000000000e+02
5.353598640552635516e+03 1.778279410038922776e+02
5.826121240132566527e+03 3.162277660168379612e+02
