# Temperature (K), Pressure (bars)
1.007137936443556555e+03 3.162277660168379394e-04
1.056520247411957371e+03 5.623413251903490971e-04
1.105902560777385588e+03 1.000000000000000021e-03
1.155224186954732886e+03 1.778279410038922752e-03
1.206131265841108643e+03 3.162277660168379394e-03
1.259007016938591732e+03 5.623413251903490971e-03
1.313979686076648932e+03 1.000000000000000021e-02
1.373530644209476577e+03 1.778279410038922925e-02
1.442183602728606274e+03 3.162277660168379134e-02
1.525556213544593447e+03 5.623413251903491145e-02
1.627788112050100835e+03 1.000000000000000056e-01
1.754115303187135396e+03 1.778279410038922925e-01
1.900181028968542250e+03 3.162277660168379412e-01
2.083626854089772223e+03 5.623413251903490728e-01
2.326580661865977618e+03 1.000000000000000000e+00
2.585729523064328077e+03 1.778279410038922759e+00
2.829122077864999937e+03 3.162277660168379523e+00
3.067691448178123665e+03 5.623413251903491172e+00
3.308232703717148524e+03 1.000000000000000000e+01
3.557140501929254242e+03 1.778279410038922848e+01
3.822449134694970780e+03 3.162277660168379256e+01
4.109984060357953240e+03 5.623413251903490817e+01
4.426503929330173378e+03 1.000000000000000000e+02
4.775045811787800631e+03 1.778279410038922776e+02
5.174454251049563027e+03 3.162277660168379612e+02
