# Temperature (K), Pressure (bars)
2.442812998717182381e+03 9.999999999999999547e-07
2.450112870802774523e+03 1.778279410038922901e-06
2.457412742888367120e+03 3.162277660168379191e-06
2.484504933894369060e+03 5.623413251903491208e-06
2.522617488506189602e+03 1.000000000000000082e-05
2.559661793069808482e+03 1.778279410038922901e-05
2.598307363641159100e+03 3.162277660168379530e-05
2.642183119994402659e+03 5.623413251903490700e-05
2.690149879427936412e+03 1.000000000000000048e-04
2.742241385939950760e+03 1.778279410038922698e-04
2.798731478925756164e+03 3.162277660168379394e-04
2.857775468515975717e+03 5.623413251903490971e-04
2.916639486915470115e+03 1.000000000000000021e-03
2.973464001257914788e+03 1.778279410038922752e-03
3.027046934393128595e+03 3.162277660168379394e-03
3.079122897297440431e+03 5.623413251903490971e-03
3.134587855533293350e+03 1.000000000000000021e-02
3.199749451982817391e+03 1.778279410038922925e-02
3.267645599664663678e+03 3.162277660168379134e-02
3.348654797076422255e+03 5.623413251903491145e-02
3.489296706161260317e+03 1.000000000000000056e-01
3.709171805726576622e+03 1.778279410038922925e-01
3.959010689802018078e+03 3.162277660168379412e-01
4.276876906440029416e+03 5.623413251903490728e-01
4.722961822352805939e+03 1.000000000000000000e+00
5.443467418199285021e+03 1.778279410038922759e+00
6.618727675298350732e+03 3.162277660168379523e+00
8.181477546180793070e+03 5.623413251903491172e+00
9.896098025468707419e+03 1.000000000000000000e+01
1.000000000000000000e+04 1.778279410038922848e+01
1.000000000000000000e+04 3.162277660168379256e+01
1.000000000000000000e+04 5.623413251903490817e+01
1.000000000000000000e+04 1.000000000000000000e+02
1.000000000000000000e+04 1.778279410038922776e+02
1.000000000000000000e+04 3.162277660168379612e+02
