# Temperature (K), Pressure (bars)
1.021741123080159014e+03 9.999999999999999547e-07
1.061329403136889596e+03 1.778279410038922901e-06
1.100917683196355483e+03 3.162277660168379191e-06
1.141660543510638036e+03 5.623413251903491208e-06
1.184361672042382907e+03 1.000000000000000082e-05
1.230483689977168751e+03 1.778279410038922901e-05
1.280375403392409225e+03 3.162277660168379530e-05
1.334928075904319485e+03 5.623413251903490700e-05
1.396222029000079601e+03 1.000000000000000048e-04
1.466102933952210378e+03 1.778279410038922698e-04
1.547010041974773685e+03 3.162277660168379394e-04
1.642756259774004320e+03 5.623413251903490971e-04
1.750504867037550412e+03 1.000000000000000021e-03
1.868700844008717468e+03 1.778279410038922752e-03
2.010674795323278886e+03 3.162277660168379394e-03
2.175916360304408954e+03 5.623413251903490971e-03
2.345128671784670587e+03 1.000000000000000021e-02
2.510756434845998228e+03 1.778279410038922925e-02
2.675841673605745200e+03 3.162277660168379134e-02
2.843245757416948436e+03 5.623413251903491145e-02
3.015333687185108829e+03 1.000000000000000056e-01
3.193787126974249077e+03 1.778279410038922925e-01
3.380214091098133849e+03 3.162277660168379412e-01
3.577725258575204862e+03 5.623413251903490728e-01
3.791452001161589578e+03 1.000000000000000000e+00
4.028045552733097793e+03 1.778279410038922759e+00
4.296013319992211109e+03 3.162277660168379523e+00
4.607140041646955979e+03 5.623413251903491172e+00
4.977363477126608814e+03 1.000000000000000000e+01
5.437347091196099427e+03 1.778279410038922848e+01
6.035468142409918983e+03 3.162277660168379256e+01
6.856827068159468581e+03 5.623413251903490817e+01
8.048279295466078111e+03 1.000000000000000000e+02
9.724557954933967267e+03 1.778279410038922776e+02
1.178830366647809569e+04 3.162277660168379612e+02
