# Temperature (K), Pressure (bars)
8.994803532258825953e+02 1.000000000000000021e-03
9.354049859769861541e+02 1.778279410038922752e-03
9.713296187238998982e+02 3.162277660168379394e-03
1.006445263291182187e+03 5.623413251903490971e-03
1.042200993910331135e+03 1.000000000000000021e-02
1.079448475767830132e+03 1.778279410038922925e-02
1.118467964537256876e+03 3.162277660168379134e-02
1.160790563105212641e+03 5.623413251903491145e-02
1.209800499233066830e+03 1.000000000000000056e-01
1.269288721128369616e+03 1.778279410038922925e-01
1.342206442463649182e+03 3.162277660168379412e-01
1.444269503121439811e+03 5.623413251903490728e-01
1.587693804232698994e+03 1.000000000000000000e+00
1.786216764655322095e+03 1.778279410038922759e+00
2.051297643590522057e+03 3.162277660168379523e+00
2.345814238611852488e+03 5.623413251903491172e+00
2.638138885326650779e+03 1.000000000000000000e+01
2.928123980556637889e+03 1.778279410038922848e+01
3.218823399243269250e+03 3.162277660168379256e+01
3.514563259409942930e+03 5.623413251903490817e+01
3.823366574231185950e+03 1.000000000000000000e+02
4.150311645607845094e+03 1.778279410038922776e+02
4.509880011858268517e+03 3.162277660168379612e+02
