# Temperature (K), Pressure (bars)
7.773035539901268294e+02 9.999999999999999547e-07
7.970874974230276848e+02 1.778279410038922901e-06
8.168714408677367373e+02 3.162277660168379191e-06
8.399964374451175217e+02 5.623413251903491208e-06
8.678259156480794445e+02 1.000000000000000082e-05
9.006753662809110210e+02 1.778279410038922901e-05
9.373110052288409406e+02 3.162277660168379530e-05
9.772769034057240560e+02 5.623413251903490700e-05
1.020784630141098432e+03 1.000000000000000048e-04
1.067110016381491278e+03 1.778279410038922698e-04
1.116187339576442128e+03 3.162277660168379394e-04
1.168661362102215207e+03 5.623413251903490971e-04
1.225436943020530862e+03 1.000000000000000021e-03
1.288579503918288538e+03 1.778279410038922752e-03
1.359995606476179773e+03 3.162277660168379394e-03
1.446026221981109302e+03 5.623413251903490971e-03
1.551391248614832421e+03 1.000000000000000021e-02
1.700270930134403898e+03 1.778279410038922925e-02
1.914601932467912548e+03 3.162277660168379134e-02
2.150673372988186657e+03 5.623413251903491145e-02
2.367284913669491289e+03 1.000000000000000056e-01
2.566581970907422146e+03 1.778279410038922925e-01
2.755445710388523366e+03 3.162277660168379412e-01
2.940354552261740992e+03 5.623413251903490728e-01
3.126328839434096153e+03 1.000000000000000000e+00
3.317970002456887414e+03 1.778279410038922759e+00
3.519947779485010869e+03 3.162277660168379523e+00
3.736905099452483228e+03 5.623413251903491172e+00
3.973601601958577248e+03 1.000000000000000000e+01
4.235361069756749202e+03 1.778279410038922848e+01
4.528633234305041697e+03 3.162277660168379256e+01
4.862023619367619176e+03 5.623413251903490817e+01
5.251387352628460576e+03 1.000000000000000000e+02
5.707185514336759297e+03 1.778279410038922776e+02
6.250022360587947333e+03 3.162277660168379612e+02
