# Temperature (K), Pressure (bars)
8.846204910469097058e+02 1.000000000000000082e-05
9.389817787000472435e+02 1.778279410038922901e-05
9.933430669418332855e+02 3.162277660168379530e-05
1.040762776991538203e+03 5.623413251903490700e-05
1.082081093486636746e+03 1.000000000000000048e-04
1.144317869557383347e+03 1.778279410038922698e-04
1.242803743228410212e+03 3.162277660168379394e-04
1.362253750948017796e+03 5.623413251903490971e-04
1.497313499326385454e+03 1.000000000000000021e-03
1.614187983660183363e+03 1.778279410038922752e-03
1.685271364935289057e+03 3.162277660168379394e-03
1.737694153113330231e+03 5.623413251903490971e-03
1.798115955004971511e+03 1.000000000000000021e-02
1.864318336474059379e+03 1.778279410038922925e-02
1.931499324184317402e+03 3.162277660168379134e-02
2.012175378102731884e+03 5.623413251903491145e-02
2.106547888242695990e+03 1.000000000000000056e-01
2.242282802110981265e+03 1.778279410038922925e-01
2.451326422180423378e+03 3.162277660168379412e-01
2.674831007284001316e+03 5.623413251903490728e-01
2.877717425615522643e+03 1.000000000000000000e+00
3.080885953510613945e+03 1.778279410038922759e+00
3.288887662301031469e+03 3.162277660168379523e+00
3.505804995803972815e+03 5.623413251903491172e+00
3.736688962239538796e+03 1.000000000000000000e+01
3.987018415196982460e+03 1.778279410038922848e+01
4.264640606063858286e+03 3.162277660168379256e+01
4.575230688133667172e+03 5.623413251903490817e+01
4.926972072461403513e+03 1.000000000000000000e+02
5.323581865027746062e+03 1.778279410038922776e+02
5.791617011083201760e+03 3.162277660168379612e+02
