# Temperature (K), Pressure (bars)
9.271500325362550257e+02 3.162277660168379530e-05
9.754060877887642391e+02 5.623413251903490700e-05
1.023662146541202333e+03 1.000000000000000048e-04
1.071151479724884211e+03 1.778279410038922698e-04
1.119917680761102702e+03 3.162277660168379394e-04
1.192754664521709401e+03 5.623413251903490971e-04
1.298045360135931332e+03 1.000000000000000021e-03
1.430032073226208468e+03 1.778279410038922752e-03
1.589598057889583060e+03 3.162277660168379394e-03
1.715785081092275732e+03 5.623413251903490971e-03
1.779053843218628799e+03 1.000000000000000021e-02
1.824354656573443208e+03 1.778279410038922925e-02
1.870903095141841050e+03 3.162277660168379134e-02
1.920335728343312894e+03 5.623413251903491145e-02
1.978191302696535104e+03 1.000000000000000056e-01
2.048609193704170593e+03 1.778279410038922925e-01
2.136085828541757564e+03 3.162277660168379412e-01
2.246589487775537236e+03 5.623413251903490728e-01
2.415946149598460124e+03 1.000000000000000000e+00
2.655741846016277577e+03 1.778279410038922759e+00
2.904996430818847784e+03 3.162277660168379523e+00
3.138932084951140496e+03 5.623413251903491172e+00
3.376525583299708160e+03 1.000000000000000000e+01
3.624493626481664705e+03 1.778279410038922848e+01
3.890262938855625634e+03 3.162277660168379256e+01
4.179846873955672891e+03 5.623413251903490817e+01
4.500103439702657852e+03 1.000000000000000000e+02
4.854235834081332541e+03 1.778279410038922776e+02
5.261398968099271769e+03 3.162277660168379612e+02
