# Temperature (K), Pressure (bars)
9.579686260800862101e+02 5.623413251903491208e-06
1.000591615149534164e+03 1.000000000000000082e-05
1.043170555792501091e+03 1.778279410038922901e-05
1.084818916605475806e+03 3.162277660168379530e-05
1.128492136057098151e+03 5.623413251903490700e-05
1.175819672665286134e+03 1.000000000000000048e-04
1.227499470463645139e+03 1.778279410038922698e-04
1.283355348609169141e+03 3.162277660168379394e-04
1.344718130719170404e+03 5.623413251903490971e-04
1.419024991206094001e+03 1.000000000000000021e-03
1.518664667649922194e+03 1.778279410038922752e-03
1.648556291773936209e+03 3.162277660168379394e-03
1.812205450211635252e+03 5.623413251903490971e-03
2.005858504969738078e+03 1.000000000000000021e-02
2.202253821315833648e+03 1.778279410038922925e-02
2.385592777550125902e+03 3.162277660168379134e-02
2.560958704514490364e+03 5.623413251903491145e-02
2.733303215762157379e+03 1.000000000000000056e-01
2.906223609471493546e+03 1.778279410038922925e-01
3.082033354881913510e+03 3.162277660168379412e-01
3.262763386435428401e+03 5.623413251903490728e-01
3.451569306145841438e+03 1.000000000000000000e+00
3.652826646710972454e+03 1.778279410038922759e+00
3.871447286169329800e+03 3.162277660168379523e+00
4.112843637868265432e+03 5.623413251903491172e+00
4.383489633344284812e+03 1.000000000000000000e+01
4.691968422439462302e+03 1.778279410038922848e+01
5.052897652651844510e+03 3.162277660168379256e+01
5.479705852558538027e+03 5.623413251903490817e+01
5.995202360196898553e+03 1.000000000000000000e+02
6.632999728404131929e+03 1.778279410038922776e+02
7.445827192385812850e+03 3.162277660168379612e+02
