# Temperature (K), Pressure (bars)
7.803200148013019088e+02 3.162277660168379394e-04
8.264823395475744974e+02 5.623413251903490971e-04
8.726446653813228522e+02 1.000000000000000021e-03
9.183137305475448784e+02 1.778279410038922752e-03
9.635615419530519148e+02 3.162277660168379394e-03
1.009480565255841839e+03 5.623413251903490971e-03
1.057603352895590660e+03 1.000000000000000021e-02
1.111151352425277082e+03 1.778279410038922925e-02
1.174193677886153409e+03 3.162277660168379134e-02
1.253044334352037822e+03 5.623413251903491145e-02
1.354451719419861092e+03 1.000000000000000056e-01
1.500469764984487938e+03 1.778279410038922925e-01
1.715904750469411056e+03 3.162277660168379412e-01
1.978739084325866770e+03 5.623413251903490728e-01
2.249789513038094356e+03 1.000000000000000000e+00
2.513112962091622649e+03 1.778279410038922759e+00
2.765096542058518480e+03 3.162277660168379523e+00
3.008995512543833684e+03 5.623413251903491172e+00
3.251904318163418338e+03 1.000000000000000000e+01
3.501475954700294551e+03 1.778279410038922848e+01
3.766860576169658543e+03 3.162277660168379256e+01
4.053171896304140773e+03 5.623413251903490817e+01
4.367117393839052966e+03 1.000000000000000000e+02
4.711950632127201061e+03 1.778279410038922776e+02
5.105494255171229270e+03 3.162277660168379612e+02
