# Temperature (K), Pressure (bars)
2.159501823081957809e+03 9.999999999999999547e-07
2.202583914187694063e+03 1.778279410038922901e-06
2.245666005428109202e+03 3.162277660168379191e-06
2.281181719063489254e+03 5.623413251903491208e-06
2.309806690837316637e+03 1.000000000000000082e-05
2.334103795848644495e+03 1.778279410038922901e-05
2.357475564744979692e+03 3.162277660168379530e-05
2.385709819129077005e+03 5.623413251903490700e-05
2.423843849803961803e+03 1.000000000000000048e-04
2.473909674770883157e+03 1.778279410038922698e-04
2.535860907406909064e+03 3.162277660168379394e-04
2.609605078631232573e+03 5.623413251903490971e-04
2.695510536179199335e+03 1.000000000000000021e-03
2.794091511658254603e+03 1.778279410038922752e-03
2.905970284941065984e+03 3.162277660168379394e-03
3.030385786730578729e+03 5.623413251903490971e-03
3.168183048186821907e+03 1.000000000000000021e-02
3.321062219364797784e+03 1.778279410038922925e-02
3.495608266054829983e+03 3.162277660168379134e-02
3.775040428035327750e+03 5.623413251903491145e-02
4.219013107114543345e+03 1.000000000000000056e-01
5.007735211128716401e+03 1.778279410038922925e-01
6.094103487436422256e+03 3.162277660168379412e-01
7.547346773785234291e+03 5.623413251903490728e-01
9.001584883430426999e+03 1.000000000000000000e+00
1.036355117044910003e+04 1.778279410038922759e+00
1.189025237691086659e+04 3.162277660168379523e+00
1.382949447710813547e+04 5.623413251903491172e+00
1.629163538538416287e+04 1.000000000000000000e+01
1.941127610841722708e+04 1.778279410038922848e+01
2.334921548792720569e+04 3.162277660168379256e+01
2.828643515104029575e+04 5.623413251903490817e+01
3.441068270551512251e+04 1.000000000000000000e+02
4.187995784935889969e+04 1.778279410038922776e+02
5.078843095893356804e+04 3.162277660168379612e+02
