# Temperature (K), Pressure (bars)
8.071814959345759917e+02 1.000000000000000048e-04
8.572534429230316846e+02 1.778279410038922698e-04
9.073253912251050224e+02 3.162277660168379394e-04
9.558772478171672446e+02 5.623413251903490971e-04
1.004234408149267210e+03 1.000000000000000021e-03
1.053807065038702376e+03 1.778279410038922752e-03
1.106631608080550222e+03 3.162277660168379394e-03
1.165440377047505763e+03 5.623413251903490971e-03
1.234418686292593520e+03 1.000000000000000021e-02
1.317827967132992399e+03 1.778279410038922925e-02
1.433591772343699404e+03 3.162277660168379134e-02
1.619689345022404950e+03 5.623413251903491145e-02
1.870984963892945871e+03 1.000000000000000056e-01
2.132366097817221089e+03 1.778279410038922925e-01
2.374815054991274337e+03 3.162277660168379412e-01
2.599125721687842542e+03 5.623413251903490728e-01
2.810153678973469596e+03 1.000000000000000000e+00
3.015509760148001988e+03 1.778279410038922759e+00
3.222413303287710278e+03 3.162277660168379523e+00
3.437113248299921452e+03 5.623413251903491172e+00
3.665031899589366731e+03 1.000000000000000000e+01
3.911492752726168419e+03 1.778279410038922848e+01
4.184702691922771919e+03 3.162277660168379256e+01
4.489027300227238811e+03 5.623413251903490817e+01
4.832096089299203413e+03 1.000000000000000000e+02
5.217752742877471974e+03 1.778279410038922776e+02
5.669625960613821007e+03 3.162277660168379612e+02
