# Temperature (K), Pressure (bars)
8.362850277909342367e+02 3.162277660168379394e-04
8.732319423162385874e+02 5.623413251903490971e-04
9.101788581109052529e+02 1.000000000000000021e-03
9.471778672380486341e+02 1.778279410038922752e-03
9.859366126659718930e+02 3.162277660168379394e-03
1.026878278388739091e+03 5.623413251903490971e-03
1.068726702917704642e+03 1.000000000000000021e-02
1.112687806943475607e+03 1.778279410038922925e-02
1.160541661322261689e+03 3.162277660168379134e-02
1.218616657735987928e+03 5.623413251903491145e-02
1.288035009143207617e+03 1.000000000000000056e-01
1.395918572236605996e+03 1.778279410038922925e-01
1.584414181190032423e+03 3.162277660168379412e-01
1.836627702724329538e+03 5.623413251903490728e-01
2.115853843775026235e+03 1.000000000000000000e+00
2.395177220466747258e+03 1.778279410038922759e+00
2.660058323439618562e+03 3.162277660168379523e+00
2.914789498866213307e+03 5.623413251903491172e+00
3.165128453026256011e+03 1.000000000000000000e+01
3.418936624099365417e+03 1.778279410038922848e+01
3.685877838775301370e+03 3.162277660168379256e+01
3.971456037111604928e+03 5.623413251903490817e+01
4.282515380627501145e+03 1.000000000000000000e+02
4.622337618129525254e+03 1.778279410038922776e+02
5.008004285487159905e+03 3.162277660168379612e+02
