# Temperature (K), Pressure (bars)
2.066474691900382822e+03 9.999999999999999547e-07
2.071405992355177659e+03 1.778279410038922901e-06
2.076337292811676434e+03 3.162277660168379191e-06
2.085992325493896715e+03 5.623413251903491208e-06
2.102274762632021066e+03 1.000000000000000082e-05
2.126070185136934924e+03 1.778279410038922901e-05
2.157414765596755387e+03 3.162277660168379530e-05
2.193896233930520793e+03 5.623413251903490700e-05
2.232198170910927274e+03 1.000000000000000048e-04
2.269976493091549401e+03 1.778279410038922698e-04
2.305643697070165672e+03 3.162277660168379394e-04
2.338152604154795881e+03 5.623413251903490971e-04
2.367505176003574888e+03 1.000000000000000021e-03
2.395039955278109119e+03 1.778279410038922752e-03
2.422721651218605530e+03 3.162277660168379394e-03
2.452876551897598347e+03 5.623413251903490971e-03
2.487342115047018524e+03 1.000000000000000021e-02
2.529702301549286858e+03 1.778279410038922925e-02
2.582057598737818807e+03 3.162277660168379134e-02
2.653067345310220844e+03 5.623413251903491145e-02
2.760337344346066857e+03 1.000000000000000056e-01
2.899998586741920917e+03 1.778279410038922925e-01
3.055829958332485148e+03 3.162277660168379412e-01
3.225094697545404415e+03 5.623413251903490728e-01
3.410388352408707760e+03 1.000000000000000000e+00
3.613024000973902730e+03 1.778279410038922759e+00
3.834289566371677211e+03 3.162277660168379523e+00
4.077439410582365326e+03 5.623413251903491172e+00
4.348070810644892845e+03 1.000000000000000000e+01
4.654137234506206369e+03 1.778279410038922848e+01
5.006598611000404162e+03 3.162277660168379256e+01
5.423332057783598430e+03 5.623413251903490817e+01
5.923922044186937455e+03 1.000000000000000000e+02
6.540434997525524523e+03 1.778279410038922776e+02
7.323488352569825111e+03 3.162277660168379612e+02
