# Temperature (K), Pressure (bars)
2.415691050507596174e+03 3.162277660168379191e-06
2.418646280610213125e+03 5.623413251903491208e-06
2.421601635497338066e+03 1.000000000000000082e-05
2.430316148465124570e+03 1.778279410038922901e-05
2.454396615211274366e+03 3.162277660168379530e-05
2.489708823385367850e+03 5.623413251903490700e-05
2.527518343641658248e+03 1.000000000000000048e-04
2.570172119899158133e+03 1.778279410038922698e-04
2.619288073653028732e+03 3.162277660168379394e-04
2.674667371599003673e+03 5.623413251903490971e-04
2.739328728690911703e+03 1.000000000000000021e-03
2.815863235032499233e+03 1.778279410038922752e-03
2.903743018207599107e+03 3.162277660168379394e-03
2.998746858774339216e+03 5.623413251903490971e-03
3.091952727339669764e+03 1.000000000000000021e-02
3.175935345977762154e+03 1.778279410038922925e-02
3.243213105581036871e+03 3.162277660168379134e-02
3.298261773279257795e+03 5.623413251903491145e-02
3.323714188458970511e+03 1.000000000000000056e-01
3.370964983876651786e+03 1.778279410038922925e-01
3.541889753109767753e+03 3.162277660168379412e-01
3.778943951091519921e+03 5.623413251903490728e-01
4.031500701848743120e+03 1.000000000000000000e+00
4.339355449894810590e+03 1.778279410038922759e+00
4.685812509442481314e+03 3.162277660168379523e+00
5.133422177799684505e+03 5.623413251903491172e+00
5.760761492184929921e+03 1.000000000000000000e+01
6.719541649411240542e+03 1.778279410038922848e+01
8.149345118574846310e+03 3.162277660168379256e+01
9.970243469592538531e+03 5.623413251903490817e+01
1.213490581731711427e+04 1.000000000000000000e+02
1.477441912230928938e+04 1.778279410038922776e+02
1.792460042620445893e+04 3.162277660168379612e+02
