# Temperature (K), Pressure (bars)
2.149566987151742978e+03 9.999999999999999547e-07
2.167480817573588411e+03 1.778279410038922901e-06
2.185394647995750347e+03 3.162277660168379191e-06
2.200045634298915047e+03 5.623413251903491208e-06
2.209406621110748347e+03 1.000000000000000082e-05
2.216927111203658569e+03 1.778279410038922901e-05
2.230400322229810627e+03 3.162277660168379530e-05
2.254367301260061140e+03 5.623413251903490700e-05
2.288420959896241584e+03 1.000000000000000048e-04
2.330947673045849115e+03 1.778279410038922698e-04
2.380766439894415271e+03 3.162277660168379394e-04
2.437945851977703114e+03 5.623413251903490971e-04
2.503652744465545766e+03 1.000000000000000021e-03
2.580576868613011357e+03 1.778279410038922752e-03
2.672690945498832662e+03 3.162277660168379394e-03
2.780917578430698086e+03 5.623413251903490971e-03
2.903318629238734502e+03 1.000000000000000021e-02
3.040147126836935968e+03 1.778279410038922925e-02
3.195310038052715754e+03 3.162277660168379134e-02
3.377806802542798778e+03 5.623413251903491145e-02
3.614976537693892169e+03 1.000000000000000056e-01
3.860541398438279430e+03 1.778279410038922925e-01
4.182047084892803468e+03 3.162277660168379412e-01
4.659352188173636023e+03 5.623413251903490728e-01
5.453488088201716891e+03 1.000000000000000000e+00
6.664613707079482992e+03 1.778279410038922759e+00
8.233173987948379363e+03 3.162277660168379523e+00
9.865966729591493277e+03 5.623413251903491172e+00
1.164692832764680315e+04 1.000000000000000000e+01
1.388020354584826418e+04 1.778279410038922848e+01
1.669904336168325608e+04 3.162277660168379256e+01
2.023293922157216730e+04 5.623413251903490817e+01
2.461644775732435664e+04 1.000000000000000000e+02
2.996686221292221671e+04 1.778279410038922776e+02
3.634985402066112147e+04 3.162277660168379612e+02
