# Temperature (K), Pressure (bars)
2.161280180683270373e+03 3.162277660168379191e-06
2.175703074307808038e+03 5.623413251903491208e-06
2.190125973245766090e+03 1.000000000000000082e-05
2.211140563133591058e+03 1.778279410038922901e-05
2.235733583270714462e+03 3.162277660168379530e-05
2.267259689683310171e+03 5.623413251903490700e-05
2.310482462194844629e+03 1.000000000000000048e-04
2.366731750672419366e+03 1.778279410038922698e-04
2.435789498301536696e+03 3.162277660168379394e-04
2.515173293043438207e+03 5.623413251903490971e-04
2.602619683406925105e+03 1.000000000000000021e-03
2.697174663498823065e+03 1.778279410038922752e-03
2.796050925283121160e+03 3.162277660168379394e-03
2.891489863128960678e+03 5.623413251903490971e-03
2.974676427917037927e+03 1.000000000000000021e-02
3.038491278212119141e+03 1.778279410038922925e-02
3.077457122361828624e+03 3.162277660168379134e-02
3.093657495190160716e+03 5.623413251903491145e-02
3.149963867337189185e+03 1.000000000000000056e-01
3.299812095733401293e+03 1.778279410038922925e-01
3.492415537820602822e+03 3.162277660168379412e-01
3.698766841365977143e+03 5.623413251903490728e-01
3.938694994575853343e+03 1.000000000000000000e+00
4.220560201595436411e+03 1.778279410038922759e+00
4.528175197640965052e+03 3.162277660168379523e+00
4.906094693910444221e+03 5.623413251903491172e+00
5.395392416537793906e+03 1.000000000000000000e+01
6.078590716974278621e+03 1.778279410038922848e+01
7.106590239088883209e+03 3.162277660168379256e+01
8.606460570499144524e+03 5.623413251903490817e+01
1.000000000000000000e+04 1.000000000000000000e+02
1.000000000000000000e+04 1.778279410038922776e+02
1.000000000000000000e+04 3.162277660168379612e+02
