# Temperature (K), Pressure (bars)
7.950213248802557473e+02 5.623413251903490971e-04
8.356542193419358000e+02 1.000000000000000021e-03
8.762871152187439066e+02 1.778279410038922752e-03
9.173105109331419271e+02 3.162277660168379394e-03
9.584671685274126958e+02 5.623413251903490971e-03
1.000170901494491659e+03 1.000000000000000021e-02
1.042882268533008073e+03 1.778279410038922925e-02
1.088057592388956209e+03 3.162277660168379134e-02
1.138875293200168926e+03 5.623413251903491145e-02
1.200311641208968467e+03 1.000000000000000056e-01
1.277440222636545741e+03 1.778279410038922925e-01
1.380763719747331834e+03 3.162277660168379412e-01
1.527038036910200390e+03 5.623413251903490728e-01
1.732463132973480697e+03 1.000000000000000000e+00
1.993209317575773639e+03 1.778279410038922759e+00
2.276951769289091317e+03 3.162277660168379523e+00
2.560775386724169493e+03 5.623413251903491172e+00
2.840240546178336899e+03 1.000000000000000000e+01
3.115613146096231048e+03 1.778279410038922848e+01
3.394494661089546298e+03 3.162277660168379256e+01
3.683500149108928781e+03 5.623413251903490817e+01
3.990387646578096792e+03 1.000000000000000000e+02
4.319405445429904830e+03 1.778279410038922776e+02
4.685926305374410731e+03 3.162277660168379612e+02
