# Temperature (K), Pressure (bars)
1.725383683573989856e+03 1.778279410038922901e-06
1.739688648351376514e+03 3.162277660168379191e-06
1.753993614310778867e+03 5.623413251903491208e-06
1.772467948591039431e+03 1.000000000000000082e-05
1.798903126748506565e+03 1.778279410038922901e-05
1.832356999740760102e+03 3.162277660168379530e-05
1.869706290599303884e+03 5.623413251903490700e-05
1.910892258183904005e+03 1.000000000000000048e-04
1.955483056468009863e+03 1.778279410038922698e-04
2.002991647548575429e+03 3.162277660168379394e-04
2.054343048308439847e+03 5.623413251903490971e-04
2.109152044459915942e+03 1.000000000000000021e-03
2.169100645723297475e+03 1.778279410038922752e-03
2.233812645274312217e+03 3.162277660168379394e-03
2.312036815524114445e+03 5.623413251903490971e-03
2.417866277816526690e+03 1.000000000000000021e-02
2.540319462882249809e+03 1.778279410038922925e-02
2.668322870404393598e+03 3.162277660168379134e-02
2.804918277794328787e+03 5.623413251903491145e-02
2.951563563357747171e+03 1.000000000000000056e-01
3.110166556848677374e+03 1.778279410038922925e-01
3.282961126736655842e+03 3.162277660168379412e-01
3.471927248632529881e+03 5.623413251903490728e-01
3.678632450285158484e+03 1.000000000000000000e+00
3.905576849763574501e+03 1.778279410038922759e+00
4.157907390093339927e+03 3.162277660168379523e+00
4.444009542467147185e+03 5.623413251903491172e+00
4.776082154594620988e+03 1.000000000000000000e+01
5.170089962468776321e+03 1.778279410038922848e+01
5.656940425583170509e+03 3.162277660168379256e+01
6.283575215080957605e+03 5.623413251903490817e+01
7.133660031286651247e+03 1.000000000000000000e+02
8.344210878760462947e+03 1.778279410038922776e+02
1.000000000000000000e+04 3.162277660168379612e+02
