# Temperature (K), Pressure (bars)
9.446842028070187780e+02 3.162277660168379394e-04
9.885216246947420586e+02 5.623413251903490971e-04
1.032359046460649552e+03 1.000000000000000021e-03
1.073548146247927207e+03 1.778279410038922752e-03
1.110527376584504282e+03 3.162277660168379394e-03
1.144543884988898753e+03 5.623413251903490971e-03
1.180226287037130305e+03 1.000000000000000021e-02
1.222823175040224214e+03 1.778279410038922925e-02
1.276789030995899793e+03 3.162277660168379134e-02
1.340401830598459355e+03 5.623413251903491145e-02
1.407472907725098139e+03 1.000000000000000056e-01
1.478736682592533953e+03 1.778279410038922925e-01
1.550616790257244702e+03 3.162277660168379412e-01
1.647676668610206434e+03 5.623413251903490728e-01
1.835413503465325675e+03 1.000000000000000000e+00
2.109218894747906688e+03 1.778279410038922759e+00
2.398951459487432203e+03 3.162277660168379523e+00
2.676819149762019151e+03 5.623413251903491172e+00
2.947153783532910893e+03 1.000000000000000000e+01
3.214481214099612771e+03 1.778279410038922848e+01
3.488353046503233600e+03 3.162277660168379256e+01
3.775309850555992853e+03 5.623413251903490817e+01
4.082708349317023931e+03 1.000000000000000000e+02
4.414608243878114990e+03 1.778279410038922776e+02
4.786450221432190119e+03 3.162277660168379612e+02
