# Temperature (K), Pressure (bars)
1.323071091313869147e+03 1.000000000000000082e-05
1.354572480847645920e+03 1.778279410038922901e-05
1.386165347160647116e+03 3.162277660168379530e-05
1.430469180396940601e+03 5.623413251903490700e-05
1.486802338844569704e+03 1.000000000000000048e-04
1.542850776304083638e+03 1.778279410038922698e-04
1.595091341444263207e+03 3.162277660168379394e-04
1.649158303372770661e+03 5.623413251903490971e-04
1.707306323648730313e+03 1.000000000000000021e-03
1.768917646566229223e+03 1.778279410038922752e-03
1.835510986725081466e+03 3.162277660168379394e-03
1.907051026041874593e+03 5.623413251903490971e-03
1.988069221174805762e+03 1.000000000000000021e-02
2.077212328923073983e+03 1.778279410038922925e-02
2.191913508457123044e+03 3.162277660168379134e-02
2.355727862693448060e+03 5.623413251903491145e-02
2.532676187341463901e+03 1.000000000000000056e-01
2.699169779826644117e+03 1.778279410038922925e-01
2.868617812406304438e+03 3.162277660168379412e-01
3.045053174084528109e+03 5.623413251903490728e-01
3.230615719159940454e+03 1.000000000000000000e+00
3.426596170897823413e+03 1.778279410038922759e+00
3.635256301977134626e+03 3.162277660168379523e+00
3.860627877281428482e+03 5.623413251903491172e+00
4.107888393048419857e+03 1.000000000000000000e+01
4.383153152734604191e+03 1.778279410038922848e+01
4.694025710341926242e+03 3.162277660168379256e+01
5.050870557576497959e+03 5.623413251903490817e+01
5.471822640057343051e+03 1.000000000000000000e+02
5.972199964443140743e+03 1.778279410038922776e+02
6.580171783307507212e+03 3.162277660168379612e+02
