# Temperature (K), Pressure (bars)
1.872459649489843969e+03 9.999999999999999547e-07
1.891857714150701895e+03 1.778279410038922901e-06
1.911255778811559821e+03 3.162277660168379191e-06
1.936014280466676382e+03 5.623413251903491208e-06
1.965000598924410269e+03 1.000000000000000082e-05
1.998489912569749549e+03 1.778279410038922901e-05
2.036844579307018421e+03 3.162277660168379530e-05
2.078019059914355239e+03 5.623413251903490700e-05
2.121540773103296942e+03 1.000000000000000048e-04
2.168413676844615566e+03 1.778279410038922698e-04
2.219255343475966583e+03 3.162277660168379394e-04
2.275751980613256819e+03 5.623413251903490971e-04
2.339500986734064554e+03 1.000000000000000021e-03
2.414764565303493782e+03 1.778279410038922752e-03
2.507093939149467133e+03 3.162277660168379394e-03
2.613365741877927121e+03 5.623413251903490971e-03
2.729473430936315708e+03 1.000000000000000021e-02
2.856267919906007592e+03 1.778279410038922925e-02
2.995505012996586629e+03 3.162277660168379134e-02
3.150567298086246410e+03 5.623413251903491145e-02
3.328859106739860636e+03 1.000000000000000056e-01
3.514108992691293679e+03 1.778279410038922925e-01
3.727419141723773009e+03 3.162277660168379412e-01
3.978187358481546198e+03 5.623413251903490728e-01
4.262716325835673160e+03 1.000000000000000000e+00
4.622318387589102713e+03 1.778279410038922759e+00
5.113969555154482805e+03 3.162277660168379523e+00
5.856136993870163678e+03 5.623413251903491172e+00
7.024892146936112113e+03 1.000000000000000000e+01
8.639771646750547006e+03 1.778279410038922848e+01
1.000000000000000000e+04 3.162277660168379256e+01
1.000000000000000000e+04 5.623413251903490817e+01
1.000000000000000000e+04 1.000000000000000000e+02
1.000000000000000000e+04 1.778279410038922776e+02
1.000000000000000000e+04 3.162277660168379612e+02
