# Temperature (K), Pressure (bars)
9.918439479688443043e+02 5.623413251903490971e-04
1.026616125217896752e+03 1.000000000000000021e-03
1.061388299776997201e+03 1.778279410038922752e-03
1.087076877351830717e+03 3.162277660168379394e-03
1.107440815108544712e+03 5.623413251903490971e-03
1.127506929105199106e+03 1.000000000000000021e-02
1.149310313433674310e+03 1.778279410038922925e-02
1.175336904541335798e+03 3.162277660168379134e-02
1.207825193799948238e+03 5.623413251903491145e-02
1.249447067867455189e+03 1.000000000000000056e-01
1.301826357938991805e+03 1.778279410038922925e-01
1.367939389620208431e+03 3.162277660168379412e-01
1.454011700475426551e+03 5.623413251903490728e-01
1.567905729994829244e+03 1.000000000000000000e+00
1.710318963021883974e+03 1.778279410038922759e+00
1.909989960737331330e+03 3.162277660168379523e+00
2.190758507095750701e+03 5.623413251903491172e+00
2.499171100843471777e+03 1.000000000000000000e+01
2.797825569699994048e+03 1.778279410038922848e+01
3.097758082472803835e+03 3.162277660168379256e+01
3.400196704390061768e+03 5.623413251903490817e+01
3.712462607148916959e+03 1.000000000000000000e+02
4.040066068374675069e+03 1.778279410038922776e+02
4.397085060630956832e+03 3.162277660168379612e+02
