# Temperature (K), Pressure (bars)
9.122242356246210875e+02 5.623413251903490700e-05
9.647578613244161261e+02 1.000000000000000048e-04
1.017291488936415590e+03 1.778279410038922698e-04
1.068437455044168246e+03 3.162277660168379394e-04
1.119680234859980601e+03 5.623413251903490971e-04
1.172276923129558327e+03 1.000000000000000021e-03
1.227120058968698913e+03 1.778279410038922752e-03
1.285024702298898546e+03 3.162277660168379394e-03
1.348038824435992638e+03 5.623413251903490971e-03
1.421766281956295188e+03 1.000000000000000021e-02
1.513555780140054139e+03 1.778279410038922925e-02
1.631508156657168229e+03 3.162277660168379134e-02
1.777505724782961579e+03 5.623413251903491145e-02
1.967266061566083181e+03 1.000000000000000056e-01
2.204088452235661407e+03 1.778279410038922925e-01
2.439812673590216036e+03 3.162277660168379412e-01
2.652436653774110709e+03 5.623413251903490728e-01
2.856962585326231874e+03 1.000000000000000000e+00
3.060141069863562734e+03 1.778279410038922759e+00
3.267056128239605641e+03 3.162277660168379523e+00
3.482685173107183800e+03 5.623413251903491172e+00
3.712183349210989945e+03 1.000000000000000000e+01
3.960909546521300399e+03 1.778279410038922848e+01
4.236834491279913891e+03 3.162277660168379256e+01
4.545104206876215358e+03 5.623413251903490817e+01
4.893705853626524913e+03 1.000000000000000000e+02
5.286413114782139928e+03 1.778279410038922776e+02
5.748719649194279555e+03 3.162277660168379612e+02
