# Temperature (K), Pressure (bars)
1.434578688708596928e+03 9.999999999999999547e-07
1.472961087285641952e+03 1.778279410038922901e-06
1.511343485862686748e+03 3.162277660168379191e-06
1.550365156135647339e+03 5.623413251903491208e-06
1.592212739623686048e+03 1.000000000000000082e-05
1.640048601916879761e+03 1.778279410038922901e-05
1.694164750718611458e+03 3.162277660168379530e-05
1.753748595181747532e+03 5.623413251903490700e-05
1.819018725174465771e+03 1.000000000000000048e-04
1.888635029311585185e+03 1.778279410038922698e-04
1.962654668561560584e+03 3.162277660168379394e-04
2.043736124874523739e+03 5.623413251903490971e-04
2.138153559470293658e+03 1.000000000000000021e-03
2.249821300517814052e+03 1.778279410038922752e-03
2.372187611331989956e+03 3.162277660168379394e-03
2.499652087934005976e+03 5.623413251903490971e-03
2.632908549407037754e+03 1.000000000000000021e-02
2.773677115991753908e+03 1.778279410038922925e-02
2.924315276772812467e+03 3.162277660168379134e-02
3.087986924317914145e+03 5.623413251903491145e-02
3.268640585059364639e+03 1.000000000000000056e-01
3.473269517452670698e+03 1.778279410038922925e-01
3.678372780349257027e+03 3.162277660168379412e-01
3.913269520253019436e+03 5.623413251903490728e-01
4.188684190102745561e+03 1.000000000000000000e+00
4.514922953003040675e+03 1.778279410038922759e+00
4.939891827923916935e+03 3.162277660168379523e+00
5.545628069857495575e+03 5.623413251903491172e+00
6.485608027819697782e+03 1.000000000000000000e+01
7.903029816027789821e+03 1.778279410038922848e+01
9.683661600906500098e+03 3.162277660168379256e+01
1.000000000000000000e+04 5.623413251903490817e+01
1.000000000000000000e+04 1.000000000000000000e+02
1.000000000000000000e+04 1.778279410038922776e+02
1.000000000000000000e+04 3.162277660168379612e+02
