# Temperature (K), Pressure (bars)
8.477749982960757507e+02 3.162277660168379394e-04
8.995971598532649978e+02 5.623413251903490971e-04
9.514193224746757096e+02 1.000000000000000021e-03
1.002005452406940321e+03 1.778279410038922752e-03
1.052429733644932639e+03 3.162277660168379394e-03
1.105988934543611322e+03 5.623413251903490971e-03
1.165652570293955023e+03 1.000000000000000021e-02
1.237727458255536249e+03 1.778279410038922925e-02
1.325319653332593816e+03 3.162277660168379134e-02
1.448296620822852674e+03 5.623413251903491145e-02
1.640479830034127417e+03 1.000000000000000056e-01
1.886733260598735114e+03 1.778279410038922925e-01
2.146611138086070241e+03 3.162277660168379412e-01
2.398254163949580288e+03 5.623413251903490728e-01
2.633716261210360699e+03 1.000000000000000000e+00
2.856645866230783213e+03 1.778279410038922759e+00
3.074548086864881952e+03 3.162277660168379523e+00
3.294956346082220080e+03 5.623413251903491172e+00
3.524423724395209774e+03 1.000000000000000000e+01
3.768876853959486652e+03 1.778279410038922848e+01
4.036526993405768280e+03 3.162277660168379256e+01
4.331648685567936809e+03 5.623413251903490817e+01
4.661186749154917379e+03 1.000000000000000000e+02
5.028702055083038431e+03 1.778279410038922776e+02
5.454895863936082606e+03 3.162277660168379612e+02
