# Temperature (K), Pressure (bars)
1.487367380034055714e+03 9.999999999999999547e-07
1.535148489562718396e+03 1.778279410038922901e-06
1.582929599099082225e+03 3.162277660168379191e-06
1.631470827050303569e+03 5.623413251903491208e-06
1.681072482245163428e+03 1.000000000000000082e-05
1.730771201385895438e+03 1.778279410038922901e-05
1.777816963377310913e+03 3.162277660168379530e-05
1.824907972155009020e+03 5.623413251903490700e-05
1.874176440224055796e+03 1.000000000000000048e-04
1.925149068121457503e+03 1.778279410038922698e-04
1.978722096997058543e+03 3.162277660168379394e-04
2.036364187409566966e+03 5.623413251903490971e-04
2.099810747229192202e+03 1.000000000000000021e-03
2.171424152891093399e+03 1.778279410038922752e-03
2.259104049385636245e+03 3.162277660168379394e-03
2.367415082896583954e+03 5.623413251903490971e-03
2.488504559695113130e+03 1.000000000000000021e-02
2.616943484013596844e+03 1.778279410038922925e-02
2.754277017669649467e+03 3.162277660168379134e-02
2.902251341943252555e+03 5.623413251903491145e-02
3.063009343189239189e+03 1.000000000000000056e-01
3.238521795872665734e+03 1.778279410038922925e-01
3.429672460823806432e+03 3.162277660168379412e-01
3.637537230483113035e+03 5.623413251903490728e-01
3.865245799825667746e+03 1.000000000000000000e+00
4.120073445384443403e+03 1.778279410038922759e+00
4.412900833536313257e+03 3.162277660168379523e+00
4.752531120701794862e+03 5.623413251903491172e+00
5.173319966378382560e+03 1.000000000000000000e+01
5.721169598863959436e+03 1.778279410038922848e+01
6.483520216514127242e+03 3.162277660168379256e+01
7.612996029713220196e+03 5.623413251903490817e+01
9.223962426439282353e+03 1.000000000000000000e+02
1.123257761551463045e+04 1.778279410038922776e+02
1.362562549219135690e+04 3.162277660168379612e+02
