# Temperature (K), Pressure (bars)
8.817843593662338435e+02 5.623413251903490971e-04
9.271585603477761879e+02 1.000000000000000021e-03
9.725327623695162629e+02 1.778279410038922752e-03
1.018155303087122206e+03 3.162277660168379394e-03
1.064278399928652789e+03 5.623413251903490971e-03
1.111505617267576099e+03 1.000000000000000021e-02
1.160468814359561065e+03 1.778279410038922925e-02
1.212782087211091948e+03 3.162277660168379134e-02
1.271760069100575492e+03 5.623413251903491145e-02
1.345966543506668813e+03 1.000000000000000056e-01
1.450937335281345668e+03 1.778279410038922925e-01
1.595261101776760370e+03 3.162277660168379412e-01
1.778766351290391185e+03 5.623413251903490728e-01
2.013847181098939700e+03 1.000000000000000000e+00
2.292015908439800114e+03 1.778279410038922759e+00
2.570506781399052215e+03 3.162277660168379523e+00
2.833441866098179617e+03 5.623413251903491172e+00
3.090394899621097920e+03 1.000000000000000000e+01
3.348470916617515741e+03 1.778279410038922848e+01
3.617087934060451062e+03 3.162277660168379256e+01
3.902455858544158218e+03 5.623413251903490817e+01
4.211654509652843444e+03 1.000000000000000000e+02
4.547956726438859732e+03 1.778279410038922776e+02
4.928403386376588969e+03 3.162277660168379612e+02
