# Temperature (K), Pressure (bars)
1.322939792874479053e+03 1.000000000000000048e-04
1.354775963316717935e+03 1.778279410038922698e-04
1.386612136820591331e+03 3.162277660168379394e-04
1.423412051005261901e+03 5.623413251903490971e-04
1.464112248995379105e+03 1.000000000000000021e-03
1.517784525169721519e+03 1.778279410038922752e-03
1.592085087215004251e+03 3.162277660168379394e-03
1.665527220256045894e+03 5.623413251903490971e-03
1.725206025998076029e+03 1.000000000000000021e-02
1.781538511076277700e+03 1.778279410038922925e-02
1.840940475429881189e+03 3.162277660168379134e-02
1.905470209113737155e+03 5.623413251903491145e-02
1.977799349889749237e+03 1.000000000000000056e-01
2.066622821670186113e+03 1.778279410038922925e-01
2.173530403255768306e+03 3.162277660168379412e-01
2.318131840730568911e+03 5.623413251903490728e-01
2.525213367791381188e+03 1.000000000000000000e+00
2.756758442806919902e+03 1.778279410038922759e+00
2.981415981219726291e+03 3.162277660168379523e+00
3.208272956277342018e+03 5.623413251903491172e+00
3.442815469909201056e+03 1.000000000000000000e+01
3.689938760297533008e+03 1.778279410038922848e+01
3.956523941873949752e+03 3.162277660168379256e+01
4.248526171384180998e+03 5.623413251903490817e+01
4.572963008242055366e+03 1.000000000000000000e+02
4.933061303676317038e+03 1.778279410038922776e+02
5.348837026172811420e+03 3.162277660168379612e+02
