# Temperature (K), Pressure (bars)
1.675159121493513339e+03 9.999999999999999547e-07
1.714874189451514894e+03 1.778279410038922901e-06
1.754589257409516222e+03 3.162277660168379191e-06
1.797968862591347488e+03 5.623413251903491208e-06
1.844653031869290771e+03 1.000000000000000082e-05
1.893479835481418377e+03 1.778279410038922901e-05
1.944654229668008611e+03 3.162277660168379530e-05
1.998792805918870499e+03 5.623413251903490700e-05
2.056483815669927935e+03 1.000000000000000048e-04
2.118420502222709274e+03 1.778279410038922698e-04
2.185600716808361085e+03 3.162277660168379394e-04
2.261098306718149161e+03 5.623413251903490971e-04
2.349465825291800229e+03 1.000000000000000021e-03
2.450616712946492044e+03 1.778279410038922752e-03
2.561243891158669157e+03 3.162277660168379394e-03
2.680277469364937133e+03 5.623413251903490971e-03
2.808844619493781465e+03 1.000000000000000021e-02
2.949793797956438993e+03 1.778279410038922925e-02
3.108105218133926428e+03 3.162277660168379134e-02
3.294681943971956116e+03 5.623413251903491145e-02
3.487431864088106522e+03 1.000000000000000056e-01
3.716423718191043463e+03 1.778279410038922925e-01
3.972471398682203926e+03 3.162277660168379412e-01
4.295910276161408547e+03 5.623413251903490728e-01
4.754069177276757728e+03 1.000000000000000000e+00
5.488834423790086475e+03 1.778279410038922759e+00
6.661276316845722249e+03 3.162277660168379523e+00
8.232211128089154954e+03 5.623413251903491172e+00
9.946166724777949639e+03 1.000000000000000000e+01
1.000000000000000000e+04 1.778279410038922848e+01
1.000000000000000000e+04 3.162277660168379256e+01
1.000000000000000000e+04 5.623413251903490817e+01
1.000000000000000000e+04 1.000000000000000000e+02
1.000000000000000000e+04 1.778279410038922776e+02
1.000000000000000000e+04 3.162277660168379612e+02
