# Temperature (K), Pressure (bars)
8.689176582100627684e+02 1.000000000000000021e-03
9.116647854489556266e+02 1.778279410038922752e-03
9.544119135368555362e+02 3.162277660168379394e-03
9.968287085474235028e+02 5.623413251903490971e-03
1.039506921246325874e+03 1.000000000000000021e-02
1.082912701211237390e+03 1.778279410038922925e-02
1.127906412583227393e+03 3.162277660168379134e-02
1.176555585511899380e+03 5.623413251903491145e-02
1.232670633272842224e+03 1.000000000000000056e-01
1.300530459961772522e+03 1.778279410038922925e-01
1.391052156789565288e+03 3.162277660168379412e-01
1.525612473720163052e+03 5.623413251903490728e-01
1.713756053208356889e+03 1.000000000000000000e+00
1.955234584842951108e+03 1.778279410038922759e+00
2.238502538960066886e+03 3.162277660168379523e+00
2.529605461006861788e+03 5.623413251903491172e+00
2.811498457425093875e+03 1.000000000000000000e+01
3.089052732971967089e+03 1.778279410038922848e+01
3.369699514748503134e+03 3.162277660168379256e+01
3.659721302672773163e+03 5.623413251903490817e+01
3.967007249803111335e+03 1.000000000000000000e+02
4.296119995680782267e+03 1.778279410038922776e+02
4.661972835060592843e+03 3.162277660168379612e+02
