# Temperature (K), Pressure (bars)
9.623671646211188317e+02 5.623413251903490971e-04
1.010620797042312802e+03 1.000000000000000021e-03
1.058874430994286968e+03 1.778279410038922752e-03
1.107011728366888747e+03 3.162277660168379394e-03
1.155443480553060908e+03 5.623413251903490971e-03
1.205346169230433361e+03 1.000000000000000021e-02
1.257164224109595580e+03 1.778279410038922925e-02
1.311910458362724057e+03 3.162277660168379134e-02
1.373746154400295381e+03 5.623413251903491145e-02
1.453333248410160650e+03 1.000000000000000056e-01
1.560828455456698066e+03 1.778279410038922925e-01
1.703833149642616718e+03 3.162277660168379412e-01
1.872117774115075918e+03 5.623413251903490728e-01
2.076708800325469838e+03 1.000000000000000000e+00
2.340729316604842097e+03 1.778279410038922759e+00
2.618219959510190620e+03 3.162277660168379523e+00
2.876685853639523884e+03 5.623413251903491172e+00
3.130341366776449831e+03 1.000000000000000000e+01
3.386609360874243976e+03 1.778279410038922848e+01
3.654189062371076488e+03 3.162277660168379256e+01
3.939499931343018943e+03 5.623413251903490817e+01
4.249606918736721127e+03 1.000000000000000000e+02
4.587767259638769247e+03 1.778279410038922776e+02
4.971117577713193896e+03 3.162277660168379612e+02
