# Temperature (K), Pressure (bars)
1.478076404449248457e+03 9.999999999999999547e-07
1.484706730679926977e+03 1.778279410038922901e-06
1.491337056940382354e+03 3.162277660168379191e-06
1.505152292444606701e+03 5.623413251903491208e-06
1.525347870494298604e+03 1.000000000000000082e-05
1.549618413949615842e+03 1.778279410038922901e-05
1.579404246067520262e+03 3.162277660168379530e-05
1.616406617712466414e+03 5.623413251903490700e-05
1.660088701672096477e+03 1.000000000000000048e-04
1.709486206027595699e+03 1.778279410038922698e-04
1.763848093175164877e+03 3.162277660168379394e-04
1.823490305122822065e+03 5.623413251903490971e-04
1.887154562647737293e+03 1.000000000000000021e-03
1.955527600255902826e+03 1.778279410038922752e-03
2.029909796748020653e+03 3.162277660168379394e-03
2.116602841523904317e+03 5.623413251903490971e-03
2.229854309678628397e+03 1.000000000000000021e-02
2.365843551713983288e+03 1.778279410038922925e-02
2.508628219115434604e+03 3.162277660168379134e-02
2.654304657486861743e+03 5.623413251903491145e-02
2.805531862887746684e+03 1.000000000000000056e-01
2.964733729736649821e+03 1.778279410038922925e-01
3.134223152419824146e+03 3.162277660168379412e-01
3.315626719126318676e+03 5.623413251903490728e-01
3.509871444540647190e+03 1.000000000000000000e+00
3.718828046912797618e+03 1.778279410038922759e+00
3.946543624974868635e+03 3.162277660168379523e+00
4.198848093858041466e+03 5.623413251903491172e+00
4.483245233366236789e+03 1.000000000000000000e+01
4.809896152139199330e+03 1.778279410038922848e+01
5.195144315503717735e+03 3.162277660168379256e+01
5.658463461451316107e+03 5.623413251903490817e+01
6.232056702591416979e+03 1.000000000000000000e+02
6.968161255926219383e+03 1.778279410038922776e+02
7.952290040002224487e+03 3.162277660168379612e+02
