# Temperature (K), Pressure (bars)
1.029505364633939735e+03 3.162277660168379394e-04
1.087553368349935454e+03 5.623413251903490971e-04
1.145601376566596400e+03 1.000000000000000021e-03
1.209363158582963024e+03 1.778279410038922752e-03
1.274545701408285140e+03 3.162277660168379394e-03
1.337802601459420202e+03 5.623413251903490971e-03
1.400327508844495696e+03 1.000000000000000021e-02
1.462519940112879340e+03 1.778279410038922925e-02
1.529926672126845460e+03 3.162277660168379134e-02
1.611830108867786976e+03 5.623413251903491145e-02
1.697886886794778093e+03 1.000000000000000056e-01
1.777426364225188536e+03 1.778279410038922925e-01
1.857813832605354264e+03 3.162277660168379412e-01
1.955307732789398869e+03 5.623413251903490728e-01
2.072496313028209443e+03 1.000000000000000000e+00
2.233777449014717604e+03 1.778279410038922759e+00
2.475664608839194898e+03 3.162277660168379523e+00
2.750643419328408072e+03 5.623413251903491172e+00
3.014798639091998211e+03 1.000000000000000000e+01
3.278443156041679686e+03 1.778279410038922848e+01
3.549806786998919506e+03 3.162277660168379256e+01
3.835909292281339276e+03 5.623413251903490817e+01
4.144052476301372735e+03 1.000000000000000000e+02
4.478071721632944900e+03 1.778279410038922776e+02
4.853900443520213230e+03 3.162277660168379612e+02
