# Temperature (K), Pressure (bars)
2.281098560041041765e+03 9.999999999999999547e-07
2.308725211499001944e+03 1.778279410038922901e-06
2.336351862956962123e+03 3.162277660168379191e-06
2.363248318341500635e+03 5.623413251903491208e-06
2.394161742152236911e+03 1.000000000000000082e-05
2.427872388181221140e+03 1.778279410038922901e-05
2.463516788411962352e+03 3.162277660168379530e-05
2.501524742805419010e+03 5.623413251903490700e-05
2.540216503936747813e+03 1.000000000000000048e-04
2.578291867257647937e+03 1.778279410038922698e-04
2.613442062796391383e+03 3.162277660168379394e-04
2.643115137824950580e+03 5.623413251903490971e-04
2.667533807242245075e+03 1.000000000000000021e-03
2.690614823763953609e+03 1.778279410038922752e-03
2.718277479677577958e+03 3.162277660168379394e-03
2.755358307056038939e+03 5.623413251903490971e-03
2.805912905252521341e+03 1.000000000000000021e-02
2.870828511250088923e+03 1.778279410038922925e-02
2.954363313189080145e+03 3.162277660168379134e-02
3.067739959729787188e+03 5.623413251903491145e-02
3.210292215047649734e+03 1.000000000000000056e-01
3.375703419532930184e+03 1.778279410038922925e-01
3.567087306874041133e+03 3.162277660168379412e-01
3.788669109149848282e+03 5.623413251903490728e-01
4.048545797406874499e+03 1.000000000000000000e+00
4.357057776791793003e+03 1.778279410038922759e+00
4.709946246695977607e+03 3.162277660168379523e+00
5.168115196339448630e+03 5.623413251903491172e+00
5.812151202656963505e+03 1.000000000000000000e+01
6.795348759824581975e+03 1.778279410038922848e+01
8.253439280464148396e+03 3.162277660168379256e+01
1.000000000000000000e+04 5.623413251903490817e+01
1.000000000000000000e+04 1.000000000000000000e+02
1.000000000000000000e+04 1.778279410038922776e+02
1.000000000000000000e+04 3.162277660168379612e+02
