# Temperature (K), Pressure (bars)
9.332216599584650112e+02 3.162277660168379394e-04
9.911276606543286789e+02 5.623413251903490971e-04
1.049033662429406604e+03 1.000000000000000021e-03
1.104832264883749531e+03 1.778279410038922752e-03
1.160082076346173380e+03 3.162277660168379394e-03
1.217478794795862996e+03 5.623413251903490971e-03
1.280457126668331512e+03 1.000000000000000021e-02
1.352299423084659111e+03 1.778279410038922925e-02
1.442571888405598202e+03 3.162277660168379134e-02
1.562618261856255685e+03 5.623413251903491145e-02
1.739821470357042926e+03 1.000000000000000056e-01
1.986175084273712173e+03 1.778279410038922925e-01
2.246617960185212723e+03 3.162277660168379412e-01
2.484377133579534529e+03 5.623413251903490728e-01
2.707608738699000241e+03 1.000000000000000000e+00
2.922703000395539675e+03 1.778279410038922759e+00
3.136451117824129597e+03 3.162277660168379523e+00
3.355011208989698844e+03 5.623413251903491172e+00
3.584177579957436592e+03 1.000000000000000000e+01
3.829639487775294583e+03 1.778279410038922848e+01
4.099422687876091004e+03 3.162277660168379256e+01
4.398154752382246443e+03 5.623413251903490817e+01
4.733153031244398335e+03 1.000000000000000000e+02
5.108081544285452765e+03 1.778279410038922776e+02
5.544851764531331355e+03 3.162277660168379612e+02
