# Temperature (K), Pressure (bars)
8.160867267416274444e+02 5.623413251903490700e-05
8.680922744421286552e+02 1.000000000000000048e-04
9.200978232535750294e+02 1.778279410038922698e-04
9.703231096855073474e+02 3.162277660168379394e-04
1.020797889366420236e+03 5.623413251903490971e-04
1.074055870496801163e+03 1.000000000000000021e-03
1.132854881612533291e+03 1.778279410038922752e-03
1.199495596231220361e+03 3.162277660168379394e-03
1.278140512878820800e+03 5.623413251903490971e-03
1.372622843128960312e+03 1.000000000000000021e-02
1.502344166149130615e+03 1.778279410038922925e-02
1.697188854940768806e+03 3.162277660168379134e-02
1.941151032422806338e+03 5.623413251903491145e-02
2.188049643960488993e+03 1.000000000000000056e-01
2.414968938857226931e+03 1.778279410038922925e-01
2.621977628290630037e+03 3.162277660168379412e-01
2.816868582495947976e+03 5.623413251903490728e-01
3.007465024359793006e+03 1.000000000000000000e+00
3.200305118504479651e+03 1.778279410038922759e+00
3.400929686773622507e+03 3.162277660168379523e+00
3.614213274015719435e+03 5.623413251903491172e+00
3.844833565222340894e+03 1.000000000000000000e+01
4.097943857608908729e+03 1.778279410038922848e+01
4.382096269859710446e+03 3.162277660168379256e+01
4.702336786487892823e+03 5.623413251903490817e+01
5.067575064895730975e+03 1.000000000000000000e+02
5.482608264381020490e+03 1.778279410038922776e+02
5.976049908406632312e+03 3.162277660168379612e+02
