# Temperature (K), Pressure (bars)
1.083356139507910939e+03 3.162277660168379394e-04
1.116137439123950571e+03 5.623413251903490971e-04
1.148918740272761170e+03 1.000000000000000021e-03
1.180414615591797883e+03 1.778279410038922752e-03
1.212321985331575206e+03 3.162277660168379394e-03
1.256809039587254802e+03 5.623413251903490971e-03
1.318119395240217045e+03 1.000000000000000021e-02
1.379946044773331778e+03 1.778279410038922925e-02
1.459523025446935435e+03 3.162277660168379134e-02
1.578809171912326974e+03 5.623413251903491145e-02
1.681430937290396059e+03 1.000000000000000056e-01
1.748751617046376396e+03 1.778279410038922925e-01
1.817809390629963900e+03 3.162277660168379412e-01
1.903076865583819426e+03 5.623413251903490728e-01
2.002252408519733081e+03 1.000000000000000000e+00
2.153498479487490840e+03 1.778279410038922759e+00
2.405908644547923359e+03 3.162277660168379523e+00
2.694709670212302626e+03 5.623413251903491172e+00
2.964797079175942145e+03 1.000000000000000000e+01
3.231992086205037140e+03 1.778279410038922848e+01
3.505227154745514781e+03 3.162277660168379256e+01
3.791845272170621683e+03 5.623413251903490817e+01
4.099228379143925849e+03 1.000000000000000000e+02
4.431226329402284136e+03 1.778279410038922776e+02
4.803910059034559708e+03 3.162277660168379612e+02
