# Temperature (K), Pressure (bars)
8.322393043300346562e+02 1.000000000000000021e-03
8.723363431133341237e+02 1.778279410038922752e-03
9.124333837081275078e+02 3.162277660168379394e-03
9.522497289333120989e+02 5.623413251903490971e-03
9.927287916858890640e+02 1.000000000000000021e-02
1.034055116335877756e+03 1.778279410038922925e-02
1.076176231920853070e+03 3.162277660168379134e-02
1.120478745671173328e+03 5.623413251903491145e-02
1.169709916080815219e+03 1.000000000000000056e-01
1.227754245008964745e+03 1.778279410038922925e-01
1.299228833861485555e+03 3.162277660168379412e-01
1.392668321488476067e+03 5.623413251903490728e-01
1.527955257080029469e+03 1.000000000000000000e+00
1.710741057380996835e+03 1.778279410038922759e+00
1.942766346882385051e+03 3.162277660168379523e+00
2.227445724366300510e+03 5.623413251903491172e+00
2.530196424145529363e+03 1.000000000000000000e+01
2.826706186722735310e+03 1.778279410038922848e+01
3.124189004610758275e+03 3.162277660168379256e+01
3.424605624997998348e+03 5.623413251903490817e+01
3.735568701788221460e+03 1.000000000000000000e+02
4.062509528179596600e+03 1.778279410038922776e+02
4.419462718370976290e+03 3.162277660168379612e+02
