# Temperature (K), Pressure (bars)
8.583663379637588378e+02 1.000000000000000021e-03
8.985121764199623158e+02 1.778279410038922752e-03
9.386580156238723021e+02 3.162277660168379394e-03
9.779813247161705476e+02 5.623413251903490971e-03
1.017786215741313072e+03 1.000000000000000021e-02
1.058404754269437490e+03 1.778279410038922925e-02
1.100487358496251545e+03 3.162277660168379134e-02
1.146158008900549703e+03 5.623413251903491145e-02
1.199167224796243318e+03 1.000000000000000056e-01
1.263211199275744548e+03 1.778279410038922925e-01
1.346170358613271446e+03 3.162277660168379412e-01
1.467439758239870116e+03 5.623413251903490728e-01
1.641096598174571454e+03 1.000000000000000000e+00
1.872972856457494800e+03 1.778279410038922759e+00
2.153044878941316711e+03 3.162277660168379523e+00
2.446305647890992077e+03 5.623413251903491172e+00
2.733524193987172112e+03 1.000000000000000000e+01
3.016719449137913671e+03 1.778279410038922848e+01
3.301619625742890548e+03 3.162277660168379256e+01
3.593898294488297324e+03 5.623413251903490817e+01
3.901568363437206699e+03 1.000000000000000000e+02
4.229537300902723473e+03 1.778279410038922776e+02
4.592261285599914117e+03 3.162277660168379612e+02
