# Temperature (K), Pressure (bars)
8.501247792176213807e+02 9.999999999999999547e-07
8.707422770329178547e+02 1.778279410038922901e-06
8.913597748546028470e+02 3.162277660168379191e-06
9.172914180263401249e+02 5.623413251903491208e-06
9.474242420103607856e+02 1.000000000000000082e-05
9.814801518145093269e+02 1.778279410038922901e-05
1.020409556858057840e+03 3.162277660168379530e-05
1.063131329498123705e+03 5.623413251903490700e-05
1.109039509588571946e+03 1.000000000000000048e-04
1.158193687747370404e+03 1.778279410038922698e-04
1.210835969390946502e+03 3.162277660168379394e-04
1.267164447593988370e+03 5.623413251903490971e-04
1.328924919013700674e+03 1.000000000000000021e-03
1.398039540970775306e+03 1.778279410038922752e-03
1.478791477235254661e+03 3.162277660168379394e-03
1.574371290977075205e+03 5.623413251903490971e-03
1.701737249204754335e+03 1.000000000000000021e-02
1.886529638216781223e+03 1.778279410038922925e-02
2.106101779488672037e+03 3.162277660168379134e-02
2.317464878703362956e+03 5.623413251903491145e-02
2.511416776046999075e+03 1.000000000000000056e-01
2.695038601107473369e+03 1.778279410038922925e-01
2.874637960513594408e+03 3.162277660168379412e-01
3.054745867379700940e+03 5.623413251903490728e-01
3.239076721654409084e+03 1.000000000000000000e+00
3.431599816143608678e+03 1.778279410038922759e+00
3.636729676186001598e+03 3.162277660168379523e+00
3.859118502333130436e+03 5.623413251903491172e+00
4.103789525243060780e+03 1.000000000000000000e+01
4.376593048523007383e+03 1.778279410038922848e+01
4.684885224534720692e+03 3.162277660168379256e+01
5.038767865881492980e+03 5.623413251903490817e+01
5.456224669427903791e+03 1.000000000000000000e+02
5.951600967301653327e+03 1.778279410038922776e+02
6.551308960551940800e+03 3.162277660168379612e+02
