# Temperature (K), Pressure (bars)
9.793024005986226257e+02 3.162277660168379530e-05
1.008663521666441966e+03 5.623413251903490700e-05
1.038024645695687695e+03 1.000000000000000048e-04
1.076018246856969427e+03 1.778279410038922698e-04
1.142989973126881523e+03 3.162277660168379394e-04
1.235059338215458638e+03 5.623413251903490971e-04
1.347467464840232878e+03 1.000000000000000021e-03
1.492639546622971011e+03 1.778279410038922752e-03
1.613817145467057799e+03 3.162277660168379394e-03
1.675604672759930509e+03 5.623413251903490971e-03
1.715649988403460839e+03 1.000000000000000021e-02
1.751780338389190547e+03 1.778279410038922925e-02
1.788762160719305484e+03 3.162277660168379134e-02
1.834692823840833626e+03 5.623413251903491145e-02
1.888652485996999303e+03 1.000000000000000056e-01
1.953553252747238048e+03 1.778279410038922925e-01
2.032979017611743757e+03 3.162277660168379412e-01
2.145509619697563267e+03 5.623413251903490728e-01
2.336056342471671087e+03 1.000000000000000000e+00
2.589122181735838240e+03 1.778279410038922759e+00
2.841611752884713496e+03 3.162277660168379523e+00
3.080828403207553038e+03 5.623413251903491172e+00
3.321471065098523013e+03 1.000000000000000000e+01
3.570520288662107760e+03 1.778279410038922848e+01
3.836051056579117358e+03 3.162277660168379256e+01
4.124053993391582480e+03 5.623413251903490817e+01
4.441338570101482219e+03 1.000000000000000000e+02
4.790917857611768341e+03 1.778279410038922776e+02
5.191857836618451984e+03 3.162277660168379612e+02
