# Temperature (K), Pressure (bars)
1.116737118771580299e+03 9.999999999999999547e-07
1.143277560249161525e+03 1.778279410038922901e-06
1.169818001733673555e+03 3.162277660168379191e-06
1.201867422688495026e+03 5.623413251903491208e-06
1.239396263688237696e+03 1.000000000000000082e-05
1.281209329030745039e+03 1.778279410038922901e-05
1.327645132094192832e+03 3.162277660168379530e-05
1.379714592201910818e+03 5.623413251903490700e-05
1.440709890853800971e+03 1.000000000000000048e-04
1.507117332648850606e+03 1.778279410038922698e-04
1.580811548770266199e+03 3.162277660168379394e-04
1.671188573841644029e+03 5.623413251903490971e-04
1.767230214520480786e+03 1.000000000000000021e-03
1.858762976350401914e+03 1.778279410038922752e-03
1.958363433989196892e+03 3.162277660168379394e-03
2.084474283882221243e+03 5.623413251903490971e-03
2.235559969290240588e+03 1.000000000000000021e-02
2.392778058128365046e+03 1.778279410038922925e-02
2.548827036534075887e+03 3.162277660168379134e-02
2.706808474373031004e+03 5.623413251903491145e-02
2.869318927381076719e+03 1.000000000000000056e-01
3.038529215509535334e+03 1.778279410038922925e-01
3.215899856861213266e+03 3.162277660168379412e-01
3.402581381854509800e+03 5.623413251903490728e-01
3.600943418196468883e+03 1.000000000000000000e+00
3.815292577653734043e+03 1.778279410038922759e+00
4.051325061320606892e+03 3.162277660168379523e+00
4.316023277362371118e+03 5.623413251903491172e+00
4.618590954573593990e+03 1.000000000000000000e+01
4.973079243948280237e+03 1.778279410038922848e+01
5.398114153967729180e+03 3.162277660168379256e+01
5.922337054905021432e+03 5.623413251903490817e+01
6.593501844928646278e+03 1.000000000000000000e+02
7.494129374813261165e+03 1.778279410038922776e+02
8.752272021253567800e+03 3.162277660168379612e+02
