# Temperature (K), Pressure (bars)
8.881278502698800139e+02 3.162277660168379394e-04
9.372892122494355363e+02 5.623413251903490971e-04
9.864505756385274253e+02 1.000000000000000021e-03
1.035068073181934778e+03 1.778279410038922752e-03
1.083886999560886125e+03 3.162277660168379394e-03
1.133829308011606372e+03 5.623413251903490971e-03
1.185360264756616289e+03 1.000000000000000021e-02
1.240037340531817335e+03 1.778279410038922925e-02
1.300710524140005418e+03 3.162277660168379134e-02
1.374952250754557099e+03 5.623413251903491145e-02
1.478921658316717867e+03 1.000000000000000056e-01
1.624153558294123513e+03 1.778279410038922925e-01
1.807859030416137784e+03 3.162277660168379412e-01
2.036095810185400978e+03 5.623413251903490728e-01
2.302277760444864271e+03 1.000000000000000000e+00
2.566426699295741855e+03 1.778279410038922759e+00
2.812973220477799259e+03 3.162277660168379523e+00
3.053062870295857920e+03 5.623413251903491172e+00
3.293893017840431639e+03 1.000000000000000000e+01
3.542573595368684437e+03 1.778279410038922848e+01
3.807771846957079106e+03 3.162277660168379256e+01
4.094938083753415867e+03 5.623413251903490817e+01
4.410767530892730065e+03 1.000000000000000000e+02
4.758522500823057271e+03 1.778279410038922776e+02
5.156498027526353326e+03 3.162277660168379612e+02
