# Temperature (K), Pressure (bars)
1.717842168472946696e+03 1.000000000000000082e-05
1.730599086758658814e+03 1.778279410038922901e-05
1.743356007212928034e+03 3.162277660168379530e-05
1.760189983586505605e+03 5.623413251903490700e-05
1.782157854873875294e+03 1.000000000000000048e-04
1.811606841259182829e+03 1.778279410038922698e-04
1.846163742602037473e+03 3.162277660168379394e-04
1.883547279845730600e+03 5.623413251903490971e-04
1.924858268453844630e+03 1.000000000000000021e-03
1.969382971409756465e+03 1.778279410038922752e-03
2.017337709169446043e+03 3.162277660168379394e-03
2.069031881896725281e+03 5.623413251903490971e-03
2.124820614792517063e+03 1.000000000000000021e-02
2.185265664566088162e+03 1.778279410038922925e-02
2.254285235185286183e+03 3.162277660168379134e-02
2.335652769189999617e+03 5.623413251903491145e-02
2.449628359914344855e+03 1.000000000000000056e-01
2.610430690323913950e+03 1.778279410038922925e-01
2.785508612869412900e+03 3.162277660168379412e-01
2.958037764773971958e+03 5.623413251903490728e-01
3.139320929153942416e+03 1.000000000000000000e+00
3.332445757149770543e+03 1.778279410038922759e+00
3.539062524763632609e+03 3.162277660168379523e+00
3.761357575709357207e+03 5.623413251903491172e+00
4.003247415002410435e+03 1.000000000000000000e+01
4.270233700604574551e+03 1.778279410038922848e+01
4.569191641922870986e+03 3.162277660168379256e+01
4.909193749747334550e+03 5.623413251903490817e+01
5.306301868175511117e+03 1.000000000000000000e+02
5.772899267332118143e+03 1.778279410038922776e+02
6.331529765419603791e+03 3.162277660168379612e+02
