# Temperature (K), Pressure (bars)
8.857528697820370098e+02 5.623413251903490971e-04
9.294357698352724810e+02 1.000000000000000021e-03
9.731186717884651216e+02 1.778279410038922752e-03
1.018221044026014283e+03 3.162277660168379394e-03
1.064217798309029149e+03 5.623413251903490971e-03
1.111112059516791533e+03 1.000000000000000021e-02
1.159363633221714053e+03 1.778279410038922925e-02
1.209906037120638075e+03 3.162277660168379134e-02
1.265417654170515561e+03 5.623413251903491145e-02
1.330189343854118306e+03 1.000000000000000056e-01
1.412888918976983632e+03 1.778279410038922925e-01
1.527024714366278886e+03 3.162277660168379412e-01
1.681357967914013216e+03 5.623413251903490728e-01
1.869704005580553257e+03 1.000000000000000000e+00
2.102212277595927844e+03 1.778279410038922759e+00
2.384211570097546428e+03 3.162277660168379523e+00
2.671801697537934160e+03 5.623413251903491172e+00
2.943084893432828721e+03 1.000000000000000000e+01
3.211227519405010298e+03 1.778279410038922848e+01
3.485238257921123477e+03 3.162277660168379256e+01
3.772095629392896626e+03 5.623413251903490817e+01
4.079259938703261923e+03 1.000000000000000000e+02
4.410595154552147505e+03 1.778279410038922776e+02
4.781998609681718335e+03 3.162277660168379612e+02
