# Temperature (K), Pressure (bars)
1.538860670327984735e+03 9.999999999999999547e-07
1.561539636531103952e+03 1.778279410038922901e-06
1.584218602736821140e+03 3.162277660168379191e-06
1.613816621117225850e+03 5.623413251903491208e-06
1.649142458447463014e+03 1.000000000000000082e-05
1.690165815141824396e+03 1.778279410038922901e-05
1.736767774163399736e+03 3.162277660168379530e-05
1.787016072406653166e+03 5.623413251903490700e-05
1.841542103484488507e+03 1.000000000000000048e-04
1.900263902983819662e+03 1.778279410038922698e-04
1.961712132699752601e+03 3.162277660168379394e-04
2.027388723786179980e+03 5.623413251903490971e-04
2.097303462400308490e+03 1.000000000000000021e-03
2.176979292590468503e+03 1.778279410038922752e-03
2.277311378426004921e+03 3.162277660168379394e-03
2.393391888314901280e+03 5.623413251903490971e-03
2.516520649421172493e+03 1.000000000000000021e-02
2.646736630502021399e+03 1.778279410038922925e-02
2.785112445997633586e+03 3.162277660168379134e-02
2.933266646821434279e+03 5.623413251903491145e-02
3.093415144428157873e+03 1.000000000000000056e-01
3.268197718447948318e+03 1.778279410038922925e-01
3.460000474435248179e+03 3.162277660168379412e-01
3.670926695659395591e+03 5.623413251903490728e-01
3.904421219870286222e+03 1.000000000000000000e+00
4.168014334826779304e+03 1.778279410038922759e+00
4.474105805345661793e+03 3.162277660168379523e+00
4.832529897784425884e+03 5.623413251903491172e+00
5.285934545887325839e+03 1.000000000000000000e+01
5.893656623802230570e+03 1.778279410038922848e+01
6.762777101459699225e+03 3.162277660168379256e+01
8.060272440347886004e+03 5.623413251903490817e+01
9.826644812748907498e+03 1.000000000000000000e+02
1.196525107009038766e+04 1.778279410038922776e+02
1.451386957459942278e+04 3.162277660168379612e+02
