# Temperature (K), Pressure (bars)
1.024566327765449842e+03 3.162277660168379394e-04
1.082077745830606091e+03 5.623413251903490971e-04
1.139589164474672316e+03 1.000000000000000021e-03
1.193281228033653861e+03 1.778279410038922752e-03
1.240307004670609786e+03 3.162277660168379394e-03
1.278055568020748979e+03 5.623413251903490971e-03
1.309942398621050643e+03 1.000000000000000021e-02
1.342717967361147657e+03 1.778279410038922925e-02
1.378073341466956435e+03 3.162277660168379134e-02
1.413028224987132489e+03 5.623413251903491145e-02
1.462592732737939514e+03 1.000000000000000056e-01
1.550938288806236869e+03 1.778279410038922925e-01
1.674782057385685675e+03 3.162277660168379412e-01
1.824798110684483163e+03 5.623413251903490728e-01
1.992945231424736221e+03 1.000000000000000000e+00
2.204273092705916952e+03 1.778279410038922759e+00
2.481537530325250373e+03 3.162277660168379523e+00
2.767588175953208520e+03 5.623413251903491172e+00
3.031912145356491237e+03 1.000000000000000000e+01
3.294341992179029148e+03 1.778279410038922848e+01
3.565063821781525803e+03 3.162277660168379256e+01
3.851017487400571554e+03 5.623413251903490817e+01
4.159405786887454269e+03 1.000000000000000000e+02
4.494023765008887494e+03 1.778279410038922776e+02
4.870859301264788883e+03 3.162277660168379612e+02
