# Temperature (K), Pressure (bars)
2.304237152998919555e+03 5.623413251903491208e-06
2.316637823591116103e+03 1.000000000000000082e-05
2.329038494536371218e+03 1.778279410038922901e-05
2.350048851248053325e+03 3.162277660168379530e-05
2.377568883719664882e+03 5.623413251903490700e-05
2.408376869757867098e+03 1.000000000000000048e-04
2.444184337404422877e+03 1.778279410038922698e-04
2.487319065565004621e+03 3.162277660168379394e-04
2.538091523541748757e+03 5.623413251903490971e-04
2.596925820716671296e+03 1.000000000000000021e-03
2.663286350519094412e+03 1.778279410038922752e-03
2.734309743037111275e+03 3.162277660168379394e-03
2.806293554801364735e+03 5.623413251903490971e-03
2.874294959682014451e+03 1.000000000000000021e-02
2.932547991103716413e+03 1.778279410038922925e-02
2.983056089077922479e+03 3.162277660168379134e-02
3.032620089945949985e+03 5.623413251903491145e-02
3.098116820650969203e+03 1.000000000000000056e-01
3.208925640175829358e+03 1.778279410038922925e-01
3.365177095625536822e+03 3.162277660168379412e-01
3.546310052300020288e+03 5.623413251903490728e-01
3.750320194200690366e+03 1.000000000000000000e+00
3.984315544698606573e+03 1.778279410038922759e+00
4.253923339260969442e+03 3.162277660168379523e+00
4.566964355291446736e+03 5.623413251903491172e+00
4.926319093340209292e+03 1.000000000000000000e+01
5.368612566380337739e+03 1.778279410038922848e+01
5.938333570712901746e+03 3.162277660168379256e+01
6.718118802725517526e+03 5.623413251903490817e+01
7.844481669260395392e+03 1.000000000000000000e+02
9.440593675907863144e+03 1.778279410038922776e+02
1.143543107299493204e+04 3.162277660168379612e+02
