# Temperature (K), Pressure (bars)
2.422963348590958503e+03 9.999999999999999547e-07
2.435054245654982424e+03 1.778279410038922901e-06
2.447145142719006344e+03 3.162277660168379191e-06
2.468907016761442264e+03 5.623413251903491208e-06
2.499666163852361933e+03 1.000000000000000082e-05
2.533368201463635160e+03 1.778279410038922901e-05
2.569097876156818529e+03 3.162277660168379530e-05
2.607605401482525849e+03 5.623413251903490700e-05
2.649380950555676918e+03 1.000000000000000048e-04
2.694492813133158506e+03 1.778279410038922698e-04
2.742452871410875105e+03 3.162277660168379394e-04
2.793141315855664288e+03 5.623413251903490971e-04
2.845018615826363202e+03 1.000000000000000021e-03
2.894854757573869847e+03 1.778279410038922752e-03
2.939118627529064725e+03 3.162277660168379394e-03
2.975452509235696652e+03 5.623413251903490971e-03
3.006359509732952574e+03 1.000000000000000021e-02
3.038479366130795825e+03 1.778279410038922925e-02
3.083664900255022076e+03 3.162277660168379134e-02
3.145115261137801554e+03 5.623413251903491145e-02
3.240643752860794393e+03 1.000000000000000056e-01
3.396283630536754572e+03 1.778279410038922925e-01
3.589670264175344983e+03 3.162277660168379412e-01
3.806511895087026005e+03 5.623413251903490728e-01
4.064007500364975840e+03 1.000000000000000000e+00
4.364874300254216905e+03 1.778279410038922759e+00
4.720124936423610052e+03 3.162277660168379523e+00
5.182977396100575788e+03 5.623413251903491172e+00
5.836780330355367369e+03 1.000000000000000000e+01
6.838211164605592785e+03 1.778279410038922848e+01
8.314964275734495459e+03 3.162277660168379256e+01
1.000000000000000000e+04 5.623413251903490817e+01
1.000000000000000000e+04 1.000000000000000000e+02
1.000000000000000000e+04 1.778279410038922776e+02
1.000000000000000000e+04 3.162277660168379612e+02
