# Temperature (K), Pressure (bars)
1.604484705129928898e+03 9.999999999999999547e-07
1.626235356956207852e+03 1.778279410038922901e-06
1.647986008783481338e+03 3.162277660168379191e-06
1.674485089518961104e+03 5.623413251903491208e-06
1.708567937846219593e+03 1.000000000000000082e-05
1.747660420302330294e+03 1.778279410038922901e-05
1.789871947242755596e+03 3.162277660168379530e-05
1.836516122005580883e+03 5.623413251903490700e-05
1.887163380448229191e+03 1.000000000000000048e-04
1.941255692600881048e+03 1.778279410038922698e-04
1.999084071385336074e+03 3.162277660168379394e-04
2.061921781793727860e+03 5.623413251903490971e-04
2.130307953197458119e+03 1.000000000000000021e-03
2.208519672577845995e+03 1.778279410038922752e-03
2.304572216905226469e+03 3.162277660168379394e-03
2.415552967270872614e+03 5.623413251903490971e-03
2.534755654779943143e+03 1.000000000000000021e-02
2.661852701784673172e+03 1.778279410038922925e-02
2.798256735128793480e+03 3.162277660168379134e-02
2.945885588868113700e+03 5.623413251903491145e-02
3.107113895318765572e+03 1.000000000000000056e-01
3.284388673960399501e+03 1.778279410038922925e-01
3.479476616975303841e+03 3.162277660168379412e-01
3.693991546718166319e+03 5.623413251903490728e-01
3.932010066919336168e+03 1.000000000000000000e+00
4.202116843896886166e+03 1.778279410038922759e+00
4.518529953101414321e+03 3.162277660168379523e+00
4.892690718133949304e+03 5.623413251903491172e+00
5.374374466572068741e+03 1.000000000000000000e+01
6.039218863288790089e+03 1.778279410038922848e+01
7.031547538094331685e+03 3.162277660168379256e+01
8.495283171244938785e+03 5.623413251903490817e+01
1.037356156449854643e+04 1.000000000000000000e+02
1.263049708781304071e+04 1.778279410038922776e+02
1.532250334212946655e+04 3.162277660168379612e+02
