# Temperature (K), Pressure (bars)
8.202194196149980598e+02 1.000000000000000021e-03
8.572887779155403223e+02 1.778279410038922752e-03
8.943581378279067167e+02 3.162277660168379394e-03
9.319007890490797763e+02 5.623413251903490971e-03
9.700183497341901102e+02 1.000000000000000021e-02
1.008911873296322256e+03 1.778279410038922925e-02
1.048595851633666598e+03 3.162277660168379134e-02
1.090181979192010431e+03 5.623413251903491145e-02
1.136407314518100975e+03 1.000000000000000056e-01
1.191038665669161901e+03 1.778279410038922925e-01
1.258188745917756478e+03 3.162277660168379412e-01
1.344725388396143671e+03 5.623413251903490728e-01
1.466075201165303042e+03 1.000000000000000000e+00
1.634209933515900275e+03 1.778279410038922759e+00
1.860205423250106151e+03 3.162277660168379523e+00
2.141501134049698976e+03 5.623413251903491172e+00
2.442954026110901395e+03 1.000000000000000000e+01
2.743124617529205352e+03 1.778279410038922848e+01
3.045612793034079459e+03 3.162277660168379256e+01
3.349898987441014015e+03 5.623413251903490817e+01
3.662739540675122953e+03 1.000000000000000000e+02
3.989275609108403387e+03 1.778279410038922776e+02
4.344093068353299714e+03 3.162277660168379612e+02
