# Temperature (K), Pressure (bars)
8.474240753309953789e+02 1.000000000000000048e-04
8.955836168728691291e+02 1.778279410038922698e-04
9.437431596529696662e+02 3.162277660168379394e-04
9.913753160586649074e+02 5.623413251903490971e-04
1.038437622618173691e+03 1.000000000000000021e-03
1.086104155072401682e+03 1.778279410038922752e-03
1.135035721754248470e+03 3.162277660168379394e-03
1.191481189088673545e+03 5.623413251903490971e-03
1.254128047371356843e+03 1.000000000000000021e-02
1.357263695736870886e+03 1.778279410038922925e-02
1.554224272510113678e+03 3.162277660168379134e-02
1.807379293756078596e+03 5.623413251903491145e-02
2.062833364938991053e+03 1.000000000000000056e-01
2.306292848891220274e+03 1.778279410038922925e-01
2.529122991322501548e+03 3.162277660168379412e-01
2.735455628076355424e+03 5.623413251903490728e-01
2.933295321590452659e+03 1.000000000000000000e+00
3.130208709351158632e+03 1.778279410038922759e+00
3.332652099519712010e+03 3.162277660168379523e+00
3.546040603232868762e+03 5.623413251903491172e+00
3.775279730491764440e+03 1.000000000000000000e+01
4.025532194656750107e+03 1.778279410038922848e+01
4.305054475671475302e+03 3.162277660168379256e+01
4.618663333508359756e+03 5.623413251903490817e+01
4.974686818085144296e+03 1.000000000000000000e+02
5.376858978960634886e+03 1.778279410038922776e+02
5.852429287204434331e+03 3.162277660168379612e+02
