# Temperature (K), Pressure (bars)
1.203373018524182271e+03 9.999999999999999547e-07
1.245255754981558312e+03 1.778279410038922901e-06
1.287138491438934352e+03 3.162277660168379191e-06
1.332783277636488265e+03 5.623413251903491208e-06
1.382327874732602140e+03 1.000000000000000082e-05
1.437545245530094462e+03 1.778279410038922901e-05
1.499293348891232426e+03 3.162277660168379530e-05
1.568302390473633523e+03 5.623413251903490700e-05
1.647171863870833249e+03 1.000000000000000048e-04
1.733642992802870822e+03 1.778279410038922698e-04
1.825319067186442226e+03 3.162277660168379394e-04
1.926553811312790685e+03 5.623413251903490971e-04
2.047731650251839710e+03 1.000000000000000021e-03
2.190426194080502228e+03 1.778279410038922752e-03
2.341656198333329485e+03 3.162277660168379394e-03
2.493730668108091322e+03 5.623413251903490971e-03
2.648102933539251808e+03 1.000000000000000021e-02
2.807305230239609500e+03 1.778279410038922925e-02
2.974596446470207866e+03 3.162277660168379134e-02
3.154350629145523271e+03 5.623413251903491145e-02
3.355599465313134715e+03 1.000000000000000056e-01
3.550063218856573258e+03 1.778279410038922925e-01
3.771637695123879439e+03 3.162277660168379412e-01
4.029879029745369280e+03 5.623413251903490728e-01
4.331550482755521443e+03 1.000000000000000000e+00
4.723701800714771707e+03 1.778279410038922759e+00
5.284660335155665052e+03 3.162277660168379523e+00
6.152139457981689702e+03 5.623413251903491172e+00
7.452775205919039763e+03 1.000000000000000000e+01
9.158381855495606942e+03 1.778279410038922848e+01
1.000000000000000000e+04 3.162277660168379256e+01
1.000000000000000000e+04 5.623413251903490817e+01
1.000000000000000000e+04 1.000000000000000000e+02
1.000000000000000000e+04 1.778279410038922776e+02
1.000000000000000000e+04 3.162277660168379612e+02
