# Temperature (K), Pressure (bars)
9.738663392150556319e+02 3.162277660168379394e-03
1.019185350661676239e+03 5.623413251903490971e-03
1.064504362496553767e+03 1.000000000000000021e-02
1.109042739560093196e+03 1.778279410038922925e-02
1.153334912452138269e+03 3.162277660168379134e-02
1.198722274577497274e+03 5.623413251903491145e-02
1.247084252016840537e+03 1.000000000000000056e-01
1.299661958730181595e+03 1.778279410038922925e-01
1.362383147845488338e+03 3.162277660168379412e-01
1.446071699968934354e+03 5.623413251903490728e-01
1.562348420017915487e+03 1.000000000000000000e+00
1.712371547953308664e+03 1.778279410038922759e+00
1.907086705718954136e+03 3.162277660168379523e+00
2.166200457262062628e+03 5.623413251903491172e+00
2.462479958135469133e+03 1.000000000000000000e+01
2.761937574326590038e+03 1.778279410038922848e+01
3.061542667282834373e+03 3.162277660168379256e+01
3.363215030179731002e+03 5.623413251903490817e+01
3.674001785236712749e+03 1.000000000000000000e+02
3.997056890707797720e+03 1.778279410038922776e+02
4.348413142082939885e+03 3.162277660168379612e+02
