# Temperature (K), Pressure (bars)
1.727922421618916815e+03 9.999999999999999547e-07
1.758502874065881542e+03 1.778279410038922901e-06
1.789083326512846043e+03 3.162277660168379191e-06
1.827249605792723514e+03 5.623413251903491208e-06
1.870070471621984325e+03 1.000000000000000082e-05
1.916169092811509699e+03 1.778279410038922901e-05
1.965170212644881076e+03 3.162277660168379530e-05
2.016886003128293169e+03 5.623413251903490700e-05
2.071731460967949715e+03 1.000000000000000048e-04
2.129279237142936836e+03 1.778279410038922698e-04
2.190369631129440222e+03 3.162277660168379394e-04
2.256192875185248340e+03 5.623413251903490971e-04
2.331258965038226506e+03 1.000000000000000021e-03
2.421745710811957451e+03 1.778279410038922752e-03
2.526540006358527990e+03 3.162277660168379394e-03
2.642069953752719357e+03 5.623413251903490971e-03
2.768233781324037864e+03 1.000000000000000021e-02
2.906143329847608584e+03 1.778279410038922925e-02
3.058074535679428209e+03 3.162277660168379134e-02
3.228244829196644332e+03 5.623413251903491145e-02
3.425926619757179651e+03 1.000000000000000056e-01
3.632430400823106083e+03 1.778279410038922925e-01
3.878490090738614526e+03 3.162277660168379412e-01
4.157969388908691144e+03 5.623413251903490728e-01
4.520768082059963490e+03 1.000000000000000000e+00
5.042089756694276730e+03 1.778279410038922759e+00
5.852920322467872211e+03 3.162277660168379523e+00
7.064579003241212376e+03 5.623413251903491172e+00
8.700926544888259741e+03 1.000000000000000000e+01
1.000000000000000000e+04 1.778279410038922848e+01
1.000000000000000000e+04 3.162277660168379256e+01
1.000000000000000000e+04 5.623413251903490817e+01
1.000000000000000000e+04 1.000000000000000000e+02
1.000000000000000000e+04 1.778279410038922776e+02
1.000000000000000000e+04 3.162277660168379612e+02
