# Temperature (K), Pressure (bars)
1.058121960054150122e+03 9.999999999999999547e-07
1.279443585692566103e+03 1.778279410038922901e-06
1.500765211379802849e+03 3.162277660168379191e-06
1.657191417834603726e+03 5.623413251903491208e-06
1.757503156863277809e+03 1.000000000000000082e-05
1.830358941537340343e+03 1.778279410038922901e-05
1.885409052749325838e+03 3.162277660168379530e-05
1.930282025930889859e+03 5.623413251903490700e-05
1.971011618201461260e+03 1.000000000000000048e-04
2.010622201936514557e+03 1.778279410038922698e-04
2.051778370921824717e+03 3.162277660168379394e-04
2.096439492112495827e+03 5.623413251903490971e-04
2.146070314245000645e+03 1.000000000000000021e-03
2.203198211567185353e+03 1.778279410038922752e-03
2.268857628926944926e+03 3.162277660168379394e-03
2.350316319316596037e+03 5.623413251903490971e-03
2.457210345268519177e+03 1.000000000000000021e-02
2.581131411594680685e+03 1.778279410038922925e-02
2.714376506170447101e+03 3.162277660168379134e-02
2.859990522739024527e+03 5.623413251903491145e-02
3.020055797723340220e+03 1.000000000000000056e-01
3.195477616768564985e+03 1.778279410038922925e-01
3.385405195530042420e+03 3.162277660168379412e-01
3.589520677464610344e+03 5.623413251903490728e-01
3.810932089803682175e+03 1.000000000000000000e+00
4.055968653980718955e+03 1.778279410038922759e+00
4.333929676988107531e+03 3.162277660168379523e+00
4.658192012753947893e+03 5.623413251903491172e+00
5.045013108754341374e+03 1.000000000000000000e+01
5.532121247443711582e+03 1.778279410038922848e+01
6.176991776654832393e+03 3.162277660168379256e+01
7.084669787086208089e+03 5.623413251903490817e+01
8.417036416373754037e+03 1.000000000000000000e+02
1.021716813201325022e+04 1.778279410038922776e+02
1.239206041804703455e+04 3.162277660168379612e+02
