# Temperature (K), Pressure (bars)
8.321287343563423065e+02 3.162277660168379394e-04
8.836462784264072070e+02 5.623413251903490971e-04
9.351638236933920325e+02 1.000000000000000021e-03
9.848640509771290681e+02 1.778279410038922752e-03
1.033773885482477681e+03 3.162277660168379394e-03
1.083367787580657250e+03 5.623413251903490971e-03
1.135548049396182250e+03 1.000000000000000021e-02
1.193625720834477534e+03 1.778279410038922925e-02
1.261764557329872559e+03 3.162277660168379134e-02
1.346784350873091853e+03 5.623413251903491145e-02
1.457620029311586677e+03 1.000000000000000056e-01
1.626309250164433934e+03 1.778279410038922925e-01
1.869558779150029295e+03 3.162277660168379412e-01
2.139676805242773753e+03 5.623413251903490728e-01
2.399696402536937967e+03 1.000000000000000000e+00
2.647944948550672052e+03 1.778279410038922759e+00
2.885693378657208541e+03 3.162277660168379523e+00
3.119209660715107475e+03 5.623413251903491172e+00
3.355733929302902652e+03 1.000000000000000000e+01
3.602244877829262805e+03 1.778279410038922848e+01
3.867250647054423553e+03 3.162277660168379256e+01
4.155643734693513579e+03 5.623413251903490817e+01
4.474159918236172416e+03 1.000000000000000000e+02
4.825843149826472654e+03 1.778279410038922776e+02
5.229847245704101624e+03 3.162277660168379612e+02
