# Temperature (K), Pressure (bars)
1.419401195413516234e+03 3.162277660168379191e-06
1.437608919682508713e+03 5.623413251903491208e-06
1.462925618022591152e+03 1.000000000000000082e-05
1.502009000466695852e+03 1.778279410038922901e-05
1.554663886996495876e+03 3.162277660168379530e-05
1.609823221171711793e+03 5.623413251903490700e-05
1.664412365368269548e+03 1.000000000000000048e-04
1.723076649838440517e+03 1.778279410038922698e-04
1.786271008287449149e+03 3.162277660168379394e-04
1.853178816052007278e+03 5.623413251903490971e-04
1.925686346456270257e+03 1.000000000000000021e-03
2.002861651473185702e+03 1.778279410038922752e-03
2.093087738388426260e+03 3.162277660168379394e-03
2.210944163077871053e+03 5.623413251903490971e-03
2.345685225499230910e+03 1.000000000000000021e-02
2.483381367141052124e+03 1.778279410038922925e-02
2.625143252126982588e+03 3.162277660168379134e-02
2.772786725584285250e+03 5.623413251903491145e-02
2.928229367585499858e+03 1.000000000000000056e-01
3.093565934804785684e+03 1.778279410038922925e-01
3.270748162586618491e+03 3.162277660168379412e-01
3.461136004016464994e+03 5.623413251903490728e-01
3.666327775346213457e+03 1.000000000000000000e+00
3.889854635796879847e+03 1.778279410038922759e+00
4.137702387538212861e+03 3.162277660168379523e+00
4.418147313128127280e+03 5.623413251903491172e+00
4.742638043824617853e+03 1.000000000000000000e+01
5.127500955104129389e+03 1.778279410038922848e+01
5.600016309815894601e+03 3.162277660168379256e+01
6.203130730922785915e+03 5.623413251903490817e+01
7.013266014166408240e+03 1.000000000000000000e+02
8.155817838274851965e+03 1.778279410038922776e+02
9.757722936758715150e+03 3.162277660168379612e+02
