# Temperature (K), Pressure (bars)
1.806933737313316669e+03 9.999999999999999547e-07
1.835233614640818359e+03 1.778279410038922901e-06
1.863533491984748707e+03 3.162277660168379191e-06
1.895931281307287918e+03 5.623413251903491208e-06
1.932389289995753188e+03 1.000000000000000082e-05
1.970404008384631425e+03 1.778279410038922901e-05
2.009238805232612776e+03 3.162277660168379530e-05
2.047903300283997851e+03 5.623413251903490700e-05
2.085825088819108259e+03 1.000000000000000048e-04
2.124847888972639339e+03 1.778279410038922698e-04
2.167039904204765207e+03 3.162277660168379394e-04
2.213858171310901525e+03 5.623413251903490971e-04
2.266919114303998413e+03 1.000000000000000021e-03
2.328614221601300414e+03 1.778279410038922752e-03
2.399760265412925946e+03 3.162277660168379394e-03
2.484068315476036332e+03 5.623413251903490971e-03
2.586441924598190781e+03 1.000000000000000021e-02
2.702841211580917843e+03 1.778279410038922925e-02
2.830211267849672367e+03 3.162277660168379134e-02
2.971254626964240742e+03 5.623413251903491145e-02
3.128576894018048279e+03 1.000000000000000056e-01
3.304850537325221921e+03 1.778279410038922925e-01
3.501867764919225920e+03 3.162277660168379412e-01
3.721169239109904083e+03 5.623413251903490728e-01
3.966406213701240176e+03 1.000000000000000000e+00
4.247280500101945108e+03 1.778279410038922759e+00
4.563035845467975378e+03 3.162277660168379523e+00
4.954730190573196523e+03 5.623413251903491172e+00
5.469087221856319047e+03 1.000000000000000000e+01
6.199353889015117602e+03 1.778279410038922848e+01
7.309548632185553288e+03 3.162277660168379256e+01
8.897530034818275453e+03 5.623413251903490817e+01
1.086462507173349877e+04 1.000000000000000000e+02
1.322741118256597110e+04 1.778279410038922776e+02
1.604690401137203662e+04 3.162277660168379612e+02
