# Temperature (K), Pressure (bars)
1.424234990126140474e+03 1.778279410038922901e-06
1.454790243424411983e+03 3.162277660168379191e-06
1.485345508933767633e+03 5.623413251903491208e-06
1.529067373228701172e+03 1.000000000000000082e-05
1.578662246459300604e+03 1.778279410038922901e-05
1.629402604148416685e+03 3.162277660168379530e-05
1.684009448803032456e+03 5.623413251903490700e-05
1.743893743486290759e+03 1.000000000000000048e-04
1.809310953980020486e+03 1.778279410038922698e-04
1.878869713568673205e+03 3.162277660168379394e-04
1.952932206447733506e+03 5.623413251903490971e-04
2.034034548828494280e+03 1.000000000000000021e-03
2.129980545782364970e+03 1.778279410038922752e-03
2.245779569393426755e+03 3.162277660168379394e-03
2.372335912876198563e+03 5.623413251903490971e-03
2.502822110844336294e+03 1.000000000000000021e-02
2.638689421589981066e+03 1.778279410038922925e-02
2.781616434862245114e+03 3.162277660168379134e-02
2.933589477076757703e+03 5.623413251903491145e-02
3.097010907613374002e+03 1.000000000000000056e-01
3.274446165709015986e+03 1.778279410038922925e-01
3.468012592988397500e+03 3.162277660168379412e-01
3.679807314227014558e+03 5.623413251903490728e-01
3.914024591094784228e+03 1.000000000000000000e+00
4.178851388518128260e+03 1.778279410038922759e+00
4.487493228095427185e+03 3.162277660168379523e+00
4.850950649157276530e+03 5.623413251903491172e+00
5.313665823200692103e+03 1.000000000000000000e+01
5.942120470175548689e+03 1.778279410038922848e+01
6.861226840656616332e+03 3.162277660168379256e+01
8.233012855044647949e+03 5.623413251903490817e+01
1.004738351690542549e+04 1.000000000000000000e+02
1.223292593046516595e+04 1.778279410038922776e+02
1.483998370649588287e+04 3.162277660168379612e+02
