# Temperature (K), Pressure (bars)
2.318503209171534763e+03 1.778279410038922901e-06
2.321509565981794367e+03 3.162277660168379191e-06
2.324517833105803220e+03 5.623413251903491208e-06
2.337064634144319371e+03 1.000000000000000082e-05
2.359572472291135000e+03 1.778279410038922901e-05
2.388390591123889863e+03 3.162277660168379530e-05
2.423319586832320965e+03 5.623413251903490700e-05
2.462760667214073692e+03 1.000000000000000048e-04
2.506962884134618889e+03 1.778279410038922698e-04
2.557444021754763071e+03 3.162277660168379394e-04
2.614701483114502480e+03 5.623413251903490971e-04
2.678411049709139661e+03 1.000000000000000021e-03
2.746521434186955503e+03 1.778279410038922752e-03
2.816546690165036580e+03 3.162277660168379394e-03
2.883782004088108806e+03 5.623413251903490971e-03
2.943335779331435333e+03 1.000000000000000021e-02
2.992224640026465750e+03 1.778279410038922925e-02
3.038714547838156250e+03 3.162277660168379134e-02
3.088939840330144762e+03 5.623413251903491145e-02
3.163603540710273592e+03 1.000000000000000056e-01
3.295640972436690390e+03 1.778279410038922925e-01
3.468127052842615740e+03 3.162277660168379412e-01
3.661590359118165452e+03 5.623413251903490728e-01
3.886005956147507277e+03 1.000000000000000000e+00
4.148773903989813334e+03 1.778279410038922759e+00
4.459713627922837986e+03 3.162277660168379523e+00
4.813453744383327830e+03 5.623413251903491172e+00
5.258542804344378965e+03 1.000000000000000000e+01
5.853521795993671731e+03 1.778279410038922848e+01
6.713144164057050148e+03 3.162277660168379256e+01
7.999957818860640145e+03 5.623413251903490817e+01
9.751098746211826438e+03 1.000000000000000000e+02
1.187652705043260175e+04 1.778279410038922776e+02
1.440837849404276676e+04 3.162277660168379612e+02
