# Temperature (K), Pressure (bars)
9.930307631719872461e+02 5.623413251903490971e-04
1.049529197355596125e+03 1.000000000000000021e-03
1.106027634276909339e+03 1.778279410038922752e-03
1.161780344794946586e+03 3.162277660168379394e-03
1.216552662681563106e+03 5.623413251903490971e-03
1.271163252450603068e+03 1.000000000000000021e-02
1.332148286670386142e+03 1.778279410038922925e-02
1.402750126645006048e+03 3.162277660168379134e-02
1.473150457531352231e+03 5.623413251903491145e-02
1.548728599513282916e+03 1.000000000000000056e-01
1.645147848223551591e+03 1.778279410038922925e-01
1.745463561540344699e+03 3.162277660168379412e-01
1.847453577533316320e+03 5.623413251903490728e-01
1.963778691253148054e+03 1.000000000000000000e+00
2.125684913811072875e+03 1.778279410038922759e+00
2.371426012670449381e+03 3.162277660168379523e+00
2.653494536567162868e+03 5.623413251903491172e+00
2.925736316221084053e+03 1.000000000000000000e+01
3.195450071205949826e+03 1.778279410038922848e+01
3.470378820913354502e+03 3.162277660168379256e+01
3.757631759692428204e+03 5.623413251903490817e+01
4.064769998072634280e+03 1.000000000000000000e+02
4.395701515325219589e+03 1.778279410038922776e+02
4.766301331524417037e+03 3.162277660168379612e+02
