# Temperature (K), Pressure (bars)
2.162609553033254542e+03 9.999999999999999547e-07
2.201393528853463977e+03 1.778279410038922901e-06
2.240177504714744828e+03 3.162277660168379191e-06
2.273600758486183622e+03 5.623413251903491208e-06
2.301496447247410742e+03 1.000000000000000082e-05
2.323703358748193750e+03 1.778279410038922901e-05
2.341844161235168031e+03 3.162277660168379530e-05
2.362481309524594508e+03 5.623413251903490700e-05
2.392949624383743412e+03 1.000000000000000048e-04
2.436425625967034648e+03 1.778279410038922698e-04
2.492105946996352941e+03 3.162277660168379394e-04
2.559051828979275342e+03 5.623413251903490971e-04
2.637745851309628051e+03 1.000000000000000021e-03
2.729123883976023535e+03 1.778279410038922752e-03
2.834329844006149870e+03 3.162277660168379394e-03
2.953852189737615845e+03 5.623413251903490971e-03
3.088377845806292044e+03 1.000000000000000021e-02
3.238224458818927815e+03 1.778279410038922925e-02
3.410110854440413277e+03 3.162277660168379134e-02
3.638905786634417382e+03 5.623413251903491145e-02
3.951313384236962975e+03 1.000000000000000056e-01
4.458578641090892233e+03 1.778279410038922925e-01
5.315874019473461885e+03 3.162277660168379412e-01
6.508912973375890033e+03 5.623413251903490728e-01
8.020394483049651171e+03 1.000000000000000000e+00
9.496281311262595409e+03 1.778279410038922759e+00
1.098842356693615329e+04 3.162277660168379523e+00
1.278058179203672444e+04 5.623413251903491172e+00
1.505597901019458550e+04 1.000000000000000000e+01
1.793900727189211830e+04 1.778279410038922848e+01
2.157826946005229547e+04 3.162277660168379256e+01
2.614102045822643049e+04 5.623413251903490817e+01
3.180076795761685207e+04 1.000000000000000000e+02
3.870352800145932997e+04 1.778279410038922776e+02
4.693632851398297498e+04 3.162277660168379612e+02
