# Temperature (K), Pressure (bars)
7.807654405482202264e+02 9.999999999999999547e-07
8.046177307059799659e+02 1.778279410038922901e-06
8.284700208668008372e+02 3.162277660168379191e-06
8.554970076190560349e+02 5.623413251903491208e-06
8.869861442561306148e+02 1.000000000000000082e-05
9.224781158412976083e+02 1.778279410038922901e-05
9.611093657475637428e+02 3.162277660168379530e-05
1.002952247319571370e+03 5.623413251903490700e-05
1.047852173272119899e+03 1.000000000000000048e-04
1.095623089232024768e+03 1.778279410038922698e-04
1.146845831362340959e+03 3.162277660168379394e-04
1.202353089439528503e+03 5.623413251903490971e-04
1.263872555281095401e+03 1.000000000000000021e-03
1.333807572260709549e+03 1.778279410038922752e-03
1.415458462602048712e+03 3.162277660168379394e-03
1.512090046778572059e+03 5.623413251903490971e-03
1.644652409984180849e+03 1.000000000000000021e-02
1.838590022562400691e+03 1.778279410038922925e-02
2.069217991421211991e+03 3.162277660168379134e-02
2.291834393711735174e+03 5.623413251903491145e-02
2.494048102437654052e+03 1.000000000000000056e-01
2.682135538795896991e+03 1.778279410038922925e-01
2.863453735945386143e+03 3.162277660168379412e-01
3.043524048064612089e+03 5.623413251903490728e-01
3.226944735532284540e+03 1.000000000000000000e+00
3.418262972323250779e+03 1.778279410038922759e+00
3.622042528985989065e+03 3.162277660168379523e+00
3.842839406706328191e+03 5.623413251903491172e+00
4.085555336838612675e+03 1.000000000000000000e+01
4.355895197808155899e+03 1.778279410038922848e+01
4.660989792900092652e+03 3.162277660168379256e+01
5.010582012680351909e+03 5.623413251903490817e+01
5.422157112503805365e+03 1.000000000000000000e+02
5.909085804956554966e+03 1.778279410038922776e+02
6.496481952359609750e+03 3.162277660168379612e+02
