# Temperature (K), Pressure (bars)
1.308783017466513684e+03 1.778279410038922901e-06
1.341812445715320337e+03 3.162277660168379191e-06
1.375107834920469259e+03 5.623413251903491208e-06
1.414094884715228545e+03 1.000000000000000082e-05
1.459867310028444081e+03 1.778279410038922901e-05
1.512900046249099432e+03 3.162277660168379530e-05
1.574016966962891274e+03 5.623413251903490700e-05
1.645418516812272856e+03 1.000000000000000048e-04
1.723053156744775151e+03 1.778279410038922698e-04
1.803070719044262887e+03 3.162277660168379394e-04
1.886874460294402525e+03 5.623413251903490971e-04
1.980935074200254348e+03 1.000000000000000021e-03
2.096495619788622207e+03 1.778279410038922752e-03
2.230516882222116692e+03 3.162277660168379394e-03
2.370244180506253542e+03 5.623413251903490971e-03
2.511933603380579370e+03 1.000000000000000021e-02
2.657552382116946319e+03 1.778279410038922925e-02
2.809069532800353500e+03 3.162277660168379134e-02
2.968577455421756895e+03 5.623413251903491145e-02
3.138634207316938955e+03 1.000000000000000056e-01
3.322072108892697543e+03 1.778279410038922925e-01
3.521543914641255469e+03 3.162277660168379412e-01
3.740329811589303063e+03 5.623413251903490728e-01
3.984494404331928308e+03 1.000000000000000000e+00
4.264679276524948364e+03 1.778279410038922759e+00
4.584316013962299621e+03 3.162277660168379523e+00
4.982653608410186280e+03 5.623413251903491172e+00
5.509107982441852982e+03 1.000000000000000000e+01
6.255736599476641459e+03 1.778279410038922848e+01
7.358612352502599606e+03 3.162277660168379256e+01
8.949097570641866696e+03 5.623413251903490817e+01
1.092426314106912287e+04 1.000000000000000000e+02
1.329722908324985292e+04 1.778279410038922776e+02
1.612561413530609025e+04 3.162277660168379612e+02
