# Temperature (K), Pressure (bars)
8.325187532018084084e+02 9.999999999999999547e-07
8.605239976896715461e+02 1.778279410038922901e-06
8.885292421844656019e+02 3.162277660168379191e-06
9.267279815930041877e+02 5.623413251903491208e-06
9.773630188370458427e+02 1.000000000000000082e-05
1.038498768748199836e+03 1.778279410038922901e-05
1.122739439163663292e+03 3.162277660168379530e-05
1.235404183332757384e+03 5.623413251903490700e-05
1.365333047920777972e+03 1.000000000000000048e-04
1.509280916799807983e+03 1.778279410038922698e-04
1.632189837621461038e+03 3.162277660168379394e-04
1.706600180204101889e+03 5.623413251903490971e-04
1.757007210402351120e+03 1.000000000000000021e-03
1.809440459943428777e+03 1.778279410038922752e-03
1.864558443812327369e+03 3.162277660168379394e-03
1.919552733505605829e+03 5.623413251903490971e-03
1.978605680629465496e+03 1.000000000000000021e-02
2.047332986636722126e+03 1.778279410038922925e-02
2.127082981321129864e+03 3.162277660168379134e-02
2.230878074011013723e+03 5.623413251903491145e-02
2.380226351043327668e+03 1.000000000000000056e-01
2.556526143457214857e+03 1.778279410038922925e-01
2.735342649593257192e+03 3.162277660168379412e-01
2.917637320706191986e+03 5.623413251903490728e-01
3.105961659621834769e+03 1.000000000000000000e+00
3.301726836317866400e+03 1.778279410038922759e+00
3.507353447110271190e+03 3.162277660168379523e+00
3.726908570178264199e+03 5.623413251903491172e+00
3.965362391271929027e+03 1.000000000000000000e+01
4.228293562897735683e+03 1.778279410038922848e+01
4.522289706229770673e+03 3.162277660168379256e+01
4.855974948973158462e+03 5.623413251903490817e+01
5.244869382973153733e+03 1.000000000000000000e+02
5.699630616649739750e+03 1.778279410038922776e+02
6.240831335810795281e+03 3.162277660168379612e+02
