# Temperature (K), Pressure (bars)
7.489979034615594173e+02 1.000000000000000048e-04
7.930512444458541950e+02 1.778279410038922698e-04
8.371045864673413917e+02 3.162277660168379394e-04
8.805421678298889674e+02 5.623413251903490971e-04
9.241141717519363965e+02 1.000000000000000021e-03
9.687815065343361312e+02 1.778279410038922752e-03
1.015986483171765599e+03 3.162277660168379394e-03
1.068752892011246558e+03 5.623413251903490971e-03
1.129829258251252440e+03 1.000000000000000021e-02
1.206442856346777489e+03 1.778279410038922925e-02
1.300748588537659771e+03 3.162277660168379134e-02
1.439279813580381642e+03 5.623413251903491145e-02
1.655669282756177154e+03 1.000000000000000056e-01
1.914508067374586062e+03 1.778279410038922925e-01
2.174424821442660232e+03 3.162277660168379412e-01
2.424048751101910511e+03 5.623413251903490728e-01
2.656311799164647709e+03 1.000000000000000000e+00
2.876144850795896673e+03 1.778279410038922759e+00
3.091718291792674790e+03 3.162277660168379523e+00
3.310654110579955159e+03 5.623413251903491172e+00
3.539337820074105366e+03 1.000000000000000000e+01
3.783563381865563770e+03 1.778279410038922848e+01
4.051565514238724063e+03 3.162277660168379256e+01
4.347435685581869620e+03 5.623413251903490817e+01
4.678164722955059005e+03 1.000000000000000000e+02
5.047258604868422481e+03 1.778279410038922776e+02
5.475750226044678129e+03 3.162277660168379612e+02
