# Temperature (K), Pressure (bars)
9.028938177881192360e+02 1.000000000000000048e-04
9.494752036958379904e+02 1.778279410038922698e-04
9.960565897656071002e+02 3.162277660168379394e-04
1.043050041182298401e+03 5.623413251903490971e-04
1.090104978859106268e+03 1.000000000000000021e-03
1.136020939631003330e+03 1.778279410038922752e-03
1.179453369981284141e+03 3.162277660168379394e-03
1.220557762591954770e+03 5.623413251903490971e-03
1.263521272415594922e+03 1.000000000000000021e-02
1.314093104552183377e+03 1.778279410038922925e-02
1.365939757987976009e+03 3.162277660168379134e-02
1.423421198270344576e+03 5.623413251903491145e-02
1.493506050367155012e+03 1.000000000000000056e-01
1.571355934871902264e+03 1.778279410038922925e-01
1.717535282014699078e+03 3.162277660168379412e-01
1.968072706421610292e+03 5.623413251903490728e-01
2.249014125675445030e+03 1.000000000000000000e+00
2.514039087327000743e+03 1.778279410038922759e+00
2.767222965894647132e+03 3.162277660168379523e+00
3.011710287010138472e+03 5.623413251903491172e+00
3.254840388917824384e+03 1.000000000000000000e+01
3.504552128104401163e+03 1.778279410038922848e+01
3.769996366812365977e+03 3.162277660168379256e+01
4.056436690676335729e+03 5.623413251903490817e+01
4.370570868038378649e+03 1.000000000000000000e+02
4.715496359454659796e+03 1.778279410038922776e+02
5.109099164565757746e+03 3.162277660168379612e+02
