# Temperature (K), Pressure (bars)
8.978618782753740106e+02 1.000000000000000048e-04
9.413887175076031326e+02 1.778279410038922698e-04
9.849155573234944541e+02 3.162277660168379394e-04
1.029438156894407484e+03 5.623413251903490971e-04
1.071375075824104442e+03 1.000000000000000021e-03
1.108383774841576724e+03 1.778279410038922752e-03
1.142845311786924185e+03 3.162277660168379394e-03
1.179703159875323081e+03 5.623413251903490971e-03
1.223262668086299300e+03 1.000000000000000021e-02
1.279146342493743759e+03 1.778279410038922925e-02
1.344827574074822678e+03 3.162277660168379134e-02
1.416201682288222173e+03 5.623413251903491145e-02
1.487653708817802226e+03 1.000000000000000056e-01
1.569457607505281885e+03 1.778279410038922925e-01
1.730772480499980702e+03 3.162277660168379412e-01
1.988679418581408072e+03 5.623413251903490728e-01
2.268555218412901922e+03 1.000000000000000000e+00
2.532370780718119931e+03 1.778279410038922759e+00
2.783435443846317867e+03 3.162277660168379523e+00
3.025889377693080860e+03 5.623413251903491172e+00
3.267634282325864206e+03 1.000000000000000000e+01
3.516588282276013615e+03 1.778279410038922848e+01
3.781909457346719591e+03 3.162277660168379256e+01
4.068577647224115935e+03 5.623413251903490817e+01
4.383220899926279344e+03 1.000000000000000000e+02
4.728929009663392208e+03 1.778279410038922776e+02
5.123698398499676841e+03 3.162277660168379612e+02
