# Temperature (K), Pressure (bars)
2.306112228347497421e+03 9.999999999999999547e-07
2.330545031805151211e+03 1.778279410038922901e-06
2.354977835262804547e+03 3.162277660168379191e-06
2.383702385240108015e+03 5.623413251903491208e-06
2.416191411166937542e+03 1.000000000000000082e-05
2.450843080776450279e+03 1.778279410038922901e-05
2.486751744255270296e+03 3.162277660168379530e-05
2.521984678827506286e+03 5.623413251903490700e-05
2.554394753148749260e+03 1.000000000000000048e-04
2.582962233645723245e+03 1.778279410038922698e-04
2.608587004987124146e+03 3.162277660168379394e-04
2.634223924013205760e+03 5.623413251903490971e-04
2.663900152776559480e+03 1.000000000000000021e-03
2.701681160609815834e+03 1.778279410038922752e-03
2.750706190775397317e+03 3.162277660168379394e-03
2.813511945333061703e+03 5.623413251903490971e-03
2.891924977559614945e+03 1.000000000000000021e-02
2.989080439681767984e+03 1.778279410038922925e-02
3.110826046950709042e+03 3.162277660168379134e-02
3.259506196236163760e+03 5.623413251903491145e-02
3.436407686732374714e+03 1.000000000000000056e-01
3.638083577634799894e+03 1.778279410038922925e-01
3.881491853153032025e+03 3.162277660168379412e-01
4.162366201096643636e+03 5.623413251903490728e-01
4.528380268815803902e+03 1.000000000000000000e+00
5.056413847117677506e+03 1.778279410038922759e+00
5.884782719944407290e+03 3.162277660168379523e+00
7.160621705445831140e+03 5.623413251903491172e+00
8.817563811023281232e+03 1.000000000000000000e+01
1.000000000000000000e+04 1.778279410038922848e+01
1.000000000000000000e+04 3.162277660168379256e+01
1.000000000000000000e+04 5.623413251903490817e+01
1.000000000000000000e+04 1.000000000000000000e+02
1.000000000000000000e+04 1.778279410038922776e+02
1.000000000000000000e+04 3.162277660168379612e+02
