# Temperature (K), Pressure (bars)
1.976830314231047396e+03 9.999999999999999547e-07
2.007815139946249928e+03 1.778279410038922901e-06
2.038799965664130923e+03 3.162277660168379191e-06
2.076536272179747812e+03 5.623413251903491208e-06
2.119268271574965638e+03 1.000000000000000082e-05
2.163556625153525601e+03 1.778279410038922901e-05
2.206172878007945656e+03 3.162277660168379530e-05
2.244572504735383518e+03 5.623413251903490700e-05
2.278620753666439214e+03 1.000000000000000048e-04
2.309477882681999290e+03 1.778279410038922698e-04
2.338686525779731710e+03 3.162277660168379394e-04
2.368114424876598605e+03 5.623413251903490971e-04
2.399805885615906391e+03 1.000000000000000021e-03
2.435847068098250020e+03 1.778279410038922752e-03
2.477992935587707507e+03 3.162277660168379394e-03
2.529025708099209169e+03 5.623413251903490971e-03
2.590285263431285784e+03 1.000000000000000021e-02
2.666553774667803737e+03 1.778279410038922925e-02
2.768056927159773750e+03 3.162277660168379134e-02
2.893488447993380760e+03 5.623413251903491145e-02
3.036007823909100352e+03 1.000000000000000056e-01
3.196170977970993590e+03 1.778279410038922925e-01
3.376132362785424448e+03 3.162277660168379412e-01
3.576427581210371955e+03 5.623413251903490728e-01
3.797861280440326482e+03 1.000000000000000000e+00
4.044010999293313944e+03 1.778279410038922759e+00
4.322557252403635175e+03 3.162277660168379523e+00
4.646281424426520061e+03 5.623413251903491172e+00
5.028356520614179317e+03 1.000000000000000000e+01
5.506868229384674123e+03 1.778279410038922848e+01
6.136028687767375231e+03 3.162277660168379256e+01
7.015572073880441167e+03 5.623413251903490817e+01
8.306479183904002639e+03 1.000000000000000000e+02
1.007559442092626887e+04 1.778279410038922776e+02
1.222035041399023430e+04 3.162277660168379612e+02
