# Temperature (K), Pressure (bars)
8.417812875395277388e+02 5.623413251903490971e-04
8.843589298305727198e+02 1.000000000000000021e-03
9.269365731931513892e+02 1.778279410038922752e-03
9.683495320111620686e+02 3.162277660168379394e-03
1.010423322915618314e+03 5.623413251903490971e-03
1.053623848769222377e+03 1.000000000000000021e-02
1.097930358447622893e+03 1.778279410038922925e-02
1.144752094653421409e+03 3.162277660168379134e-02
1.197124929495347942e+03 5.623413251903491145e-02
1.258975242796868315e+03 1.000000000000000056e-01
1.338658731375613115e+03 1.778279410038922925e-01
1.459306425529745184e+03 3.162277660168379412e-01
1.633100948420475106e+03 5.623413251903490728e-01
1.859199648682190855e+03 1.000000000000000000e+00
2.131911855171336356e+03 1.778279410038922759e+00
2.417349189451598249e+03 3.162277660168379523e+00
2.692905265701705957e+03 5.623413251903491172e+00
2.961660344617079318e+03 1.000000000000000000e+01
3.228060581473170259e+03 1.778279410038922848e+01
3.501224628972057417e+03 3.162277660168379256e+01
3.787811523944557393e+03 5.623413251903490817e+01
4.095220589614720211e+03 1.000000000000000000e+02
4.427458800239532138e+03 1.778279410038922776e+02
4.800081179198916288e+03 3.162277660168379612e+02
