# Temperature (K), Pressure (bars)
1.716670530871986784e+03 1.778279410038922901e-05
1.729701636183358687e+03 3.162277660168379530e-05
1.742732743626131651e+03 5.623413251903490700e-05
1.759672463777227449e+03 1.000000000000000048e-04
1.781678729333668343e+03 1.778279410038922698e-04
1.811063372537391842e+03 3.162277660168379394e-04
1.845576747455215354e+03 5.623413251903490971e-04
1.882921961025428345e+03 1.000000000000000021e-03
1.924118840230895785e+03 1.778279410038922752e-03
1.968411909156114916e+03 3.162277660168379394e-03
2.016046137322457525e+03 5.623413251903490971e-03
2.067265013814957456e+03 1.000000000000000021e-02
2.122861215431012170e+03 1.778279410038922925e-02
2.182383624560896806e+03 3.162277660168379134e-02
2.252052597708313442e+03 5.623413251903491145e-02
2.332835202165200826e+03 1.000000000000000056e-01
2.445203162531144699e+03 1.778279410038922925e-01
2.616678869909215337e+03 3.162277660168379412e-01
2.808695557270507379e+03 5.623413251903490728e-01
2.994212381075763915e+03 1.000000000000000000e+00
3.187254694581928106e+03 1.778279410038922759e+00
3.391747758418210651e+03 3.162277660168379523e+00
3.610021939363639831e+03 5.623413251903491172e+00
3.845154089423446749e+03 1.000000000000000000e+01
4.101859535118206622e+03 1.778279410038922848e+01
4.387681912098235443e+03 3.162277660168379256e+01
4.709697692197303695e+03 5.623413251903490817e+01
5.077184758254835288e+03 1.000000000000000000e+02
5.495136374483487089e+03 1.778279410038922776e+02
5.992531486107447563e+03 3.162277660168379612e+02
