# Temperature (K), Pressure (bars)
7.145515407668633998e+03 9.999999999999999547e-07
8.647718633399917962e+03 1.778279410038922901e-06
1.046238717976341468e+04 3.162277660168379191e-06
1.252949838261031982e+04 5.623413251903491208e-06
1.472303175499574718e+04 1.000000000000000082e-05
1.687423577270599344e+04 1.778279410038922901e-05
1.883751412920622897e+04 3.162277660168379530e-05
2.055027078979853104e+04 5.623413251903490700e-05
2.203074289676015178e+04 1.000000000000000048e-04
2.334108360887554954e+04 1.778279410038922698e-04
2.454876993109010436e+04 3.162277660168379394e-04
2.571013106075285395e+04 5.623413251903490971e-04
2.687052117240456937e+04 1.000000000000000021e-03
2.806434597257948553e+04 1.778279410038922752e-03
2.932330557103964748e+04 3.162277660168379394e-03
3.068003279367507275e+04 5.623413251903490971e-03
3.217117184370860195e+04 1.000000000000000021e-02
3.384329201019320317e+04 1.778279410038922925e-02
3.575506592994385574e+04 3.162277660168379134e-02
3.798369480638117238e+04 5.623413251903491145e-02
4.063255753802172694e+04 1.000000000000000056e-01
4.383470622870205261e+04 1.778279410038922925e-01
4.776583334661024855e+04 3.162277660168379412e-01
5.265384014647625736e+04 5.623413251903490728e-01
5.878784498181052913e+04 1.000000000000000000e+00
6.653336663268016127e+04 1.778279410038922759e+00
7.636091175797057804e+04 3.162277660168379523e+00
8.884738491142584826e+04 5.623413251903491172e+00
1.047070702104066440e+05 1.000000000000000000e+01
1.248156809576412779e+05 1.778279410038922848e+01
1.501976320298120554e+05 3.162277660168379256e+01
1.820268683014789422e+05 5.623413251903490817e+01
2.215054371743281081e+05 1.000000000000000000e+02
2.697002350657911738e+05 1.778279410038922776e+02
3.272032774838841287e+05 3.162277660168379612e+02
