# Temperature (K), Pressure (bars)
2.274483628555249652e+03 9.999999999999999547e-07
2.280012512547008100e+03 1.778279410038922901e-06
2.285541396538766548e+03 3.162277660168379191e-06
2.314319562396154652e+03 5.623413251903491208e-06
2.351909304699754102e+03 1.000000000000000082e-05
2.391973020255587926e+03 1.778279410038922901e-05
2.437948110789166094e+03 3.162277660168379530e-05
2.488053117310588277e+03 5.623413251903490700e-05
2.540380427411913843e+03 1.000000000000000048e-04
2.592864445114616046e+03 1.778279410038922698e-04
2.644056459398917468e+03 3.162277660168379394e-04
2.692104459532440160e+03 5.623413251903490971e-04
2.735425622650399873e+03 1.000000000000000021e-03
2.774347236156160307e+03 1.778279410038922752e-03
2.812652157997837094e+03 3.162277660168379394e-03
2.855188400463473045e+03 5.623413251903490971e-03
2.909025916448864336e+03 1.000000000000000021e-02
2.974851716876633418e+03 1.778279410038922925e-02
3.062855767035989629e+03 3.162277660168379134e-02
3.194530973002260907e+03 5.623413251903491145e-02
3.362975360569016175e+03 1.000000000000000056e-01
3.548505795243973807e+03 1.778279410038922925e-01
3.766354207478525950e+03 3.162277660168379412e-01
4.029015084217009644e+03 5.623413251903490728e-01
4.333172298065096584e+03 1.000000000000000000e+00
4.729260389644618044e+03 1.778279410038922759e+00
5.292881514733868244e+03 3.162277660168379523e+00
6.159653591060369763e+03 5.623413251903491172e+00
7.487856068904749918e+03 1.000000000000000000e+01
9.198532400505013356e+03 1.778279410038922848e+01
1.000000000000000000e+04 3.162277660168379256e+01
1.000000000000000000e+04 5.623413251903490817e+01
1.000000000000000000e+04 1.000000000000000000e+02
1.000000000000000000e+04 1.778279410038922776e+02
1.000000000000000000e+04 3.162277660168379612e+02
