# Temperature (K), Pressure (bars)
2.269721643785157994e+03 9.999999999999999547e-07
2.294065514418031398e+03 1.778279410038922901e-06
2.318409385050904802e+03 3.162277660168379191e-06
2.345571919540753242e+03 5.623413251903491208e-06
2.375533217380173028e+03 1.000000000000000082e-05
2.407607437041389403e+03 1.778279410038922901e-05
2.440549627574603164e+03 3.162277660168379530e-05
2.472382837389213364e+03 5.623413251903490700e-05
2.500896856686391402e+03 1.000000000000000048e-04
2.525081335312373540e+03 1.778279410038922698e-04
2.546716050676657687e+03 3.162277660168379394e-04
2.569914844392181749e+03 5.623413251903490971e-04
2.599375780755565756e+03 1.000000000000000021e-03
2.638677530277846927e+03 1.778279410038922752e-03
2.689866496424311663e+03 3.162277660168379394e-03
2.754935042507960588e+03 5.623413251903490971e-03
2.836088845067684815e+03 1.000000000000000021e-02
2.938739543801988930e+03 1.778279410038922925e-02
3.066737806345784520e+03 3.162277660168379134e-02
3.216159927075267206e+03 5.623413251903491145e-02
3.388758484155946007e+03 1.000000000000000056e-01
3.581887620569305909e+03 1.778279410038922925e-01
3.811036222201699729e+03 3.162277660168379412e-01
4.082165754016758910e+03 5.623413251903490728e-01
4.409095698172884113e+03 1.000000000000000000e+00
4.852312430208331534e+03 1.778279410038922759e+00
5.516818124954925224e+03 3.162277660168379523e+00
6.554813682304487884e+03 5.623413251903491172e+00
8.062330969068828381e+03 1.000000000000000000e+01
9.829136554051130588e+03 1.778279410038922848e+01
1.000000000000000000e+04 3.162277660168379256e+01
1.000000000000000000e+04 5.623413251903490817e+01
1.000000000000000000e+04 1.000000000000000000e+02
1.000000000000000000e+04 1.778279410038922776e+02
1.000000000000000000e+04 3.162277660168379612e+02
