# Temperature (K), Pressure (bars)
2.246835373833603171e+03 9.999999999999999547e-07
2.260684379445568084e+03 1.778279410038922901e-06
2.274533385057532541e+03 3.162277660168379191e-06
2.290792683928749739e+03 5.623413251903491208e-06
2.308094214455748443e+03 1.000000000000000082e-05
2.321894245561713433e+03 1.778279410038922901e-05
2.329050017920223581e+03 3.162277660168379530e-05
2.333724079604821327e+03 5.623413251903490700e-05
2.345222329719901154e+03 1.000000000000000048e-04
2.369164388252874687e+03 1.778279410038922698e-04
2.405167432044296675e+03 3.162277660168379394e-04
2.450902713943743038e+03 5.623413251903490971e-04
2.505398322261959493e+03 1.000000000000000021e-03
2.569474166820100891e+03 1.778279410038922752e-03
2.646232201220083880e+03 3.162277660168379394e-03
2.741001473678721595e+03 5.623413251903490971e-03
2.854989416411399361e+03 1.000000000000000021e-02
2.985008935666198340e+03 1.778279410038922925e-02
3.131412091198039889e+03 3.162277660168379134e-02
3.298963365321974379e+03 5.623413251903491145e-02
3.495871859827716889e+03 1.000000000000000056e-01
3.718974720539860300e+03 1.778279410038922925e-01
3.972612979143897974e+03 3.162277660168379412e-01
4.297061841695605835e+03 5.623413251903490728e-01
4.755503978640714195e+03 1.000000000000000000e+00
5.479498358819932946e+03 1.778279410038922759e+00
6.568015632523031854e+03 3.162277660168379523e+00
8.102557415356579440e+03 5.623413251903491172e+00
9.816166046215248571e+03 1.000000000000000000e+01
1.000000000000000000e+04 1.778279410038922848e+01
1.000000000000000000e+04 3.162277660168379256e+01
1.000000000000000000e+04 5.623413251903490817e+01
1.000000000000000000e+04 1.000000000000000000e+02
1.000000000000000000e+04 1.778279410038922776e+02
1.000000000000000000e+04 3.162277660168379612e+02
