# Temperature (K), Pressure (bars)
1.740933909243328571e+03 9.999999999999999547e-07
1.758305549677988665e+03 1.778279410038922901e-06
1.775677190112648532e+03 3.162277660168379191e-06
1.800871406512706926e+03 5.623413251903491208e-06
1.833330459403973919e+03 1.000000000000000082e-05
1.871506653021665443e+03 1.778279410038922901e-05
1.916687228119338897e+03 3.162277660168379530e-05
1.968096637471555368e+03 5.623413251903490700e-05
2.024815186374074301e+03 1.000000000000000048e-04
2.086054697707892046e+03 1.778279410038922698e-04
2.151148286071764687e+03 3.162277660168379394e-04
2.221270788247106793e+03 5.623413251903490971e-04
2.301405912163840640e+03 1.000000000000000021e-03
2.396010622700045133e+03 1.778279410038922752e-03
2.502406321330639457e+03 3.162277660168379394e-03
2.617601326665974739e+03 5.623413251903490971e-03
2.742129201721792469e+03 1.000000000000000021e-02
2.877216515606765824e+03 1.778279410038922925e-02
3.024851984740470016e+03 3.162277660168379134e-02
3.188443112936284251e+03 5.623413251903491145e-02
3.375466492484778428e+03 1.000000000000000056e-01
3.572939177333601037e+03 1.778279410038922925e-01
3.801207476157878318e+03 3.162277660168379412e-01
4.068159384208281608e+03 5.623413251903490728e-01
4.388856979203304036e+03 1.000000000000000000e+00
4.819061920952279252e+03 1.778279410038922759e+00
5.462430819143261942e+03 3.162277660168379523e+00
6.477591716999923847e+03 5.623413251903491172e+00
7.959851867522288558e+03 1.000000000000000000e+01
9.722401293983441064e+03 1.778279410038922848e+01
1.000000000000000000e+04 3.162277660168379256e+01
1.000000000000000000e+04 5.623413251903490817e+01
1.000000000000000000e+04 1.000000000000000000e+02
1.000000000000000000e+04 1.778279410038922776e+02
1.000000000000000000e+04 3.162277660168379612e+02
