# Temperature (K), Pressure (bars)
9.507187197748769449e+02 3.162277660168379394e-04
1.006860736771197253e+03 5.623413251903490971e-04
1.063002755257157787e+03 1.000000000000000021e-03
1.117570343795672443e+03 1.778279410038922752e-03
1.171359338700603303e+03 3.162277660168379394e-03
1.226190783978191803e+03 5.623413251903490971e-03
1.283377839247173824e+03 1.000000000000000021e-02
1.345261686609210983e+03 1.778279410038922925e-02
1.418757932406088003e+03 3.162277660168379134e-02
1.514075091965966749e+03 5.623413251903491145e-02
1.642322797553669261e+03 1.000000000000000056e-01
1.810854330784473859e+03 1.778279410038922925e-01
2.028246241936506749e+03 3.162277660168379412e-01
2.284193592817996887e+03 5.623413251903490728e-01
2.536223491647077026e+03 1.000000000000000000e+00
2.768730242997246023e+03 1.778279410038922759e+00
2.994645202609301577e+03 3.162277660168379523e+00
3.220987430146055885e+03 5.623413251903491172e+00
3.453913992547180897e+03 1.000000000000000000e+01
3.699541310953240554e+03 1.778279410038922848e+01
3.965972295165195192e+03 3.162277660168379256e+01
4.258189616479069628e+03 5.623413251903490817e+01
4.583136092698838183e+03 1.000000000000000000e+02
4.944300180184098281e+03 1.778279410038922776e+02
5.361446079264494983e+03 3.162277660168379612e+02
