# Temperature (K), Pressure (bars)
8.004434785216762975e+02 1.000000000000000082e-05
8.603514251172337026e+02 1.778279410038922901e-05
9.202593753551757345e+02 3.162277660168379530e-05
9.782162733607387963e+02 5.623413251903490700e-05
1.035955307957505966e+03 1.000000000000000048e-04
1.095618732592805145e+03 1.778279410038922698e-04
1.151822926082529875e+03 3.162277660168379394e-04
1.216570210400373526e+03 5.623413251903490971e-04
1.321752509766016374e+03 1.000000000000000021e-03
1.482429501718321717e+03 1.778279410038922752e-03
1.658989775869143841e+03 3.162277660168379394e-03
1.782930482912132675e+03 5.623413251903490971e-03
1.859656965519433697e+03 1.000000000000000021e-02
1.930254936751407513e+03 1.778279410038922925e-02
2.008654340931391062e+03 3.162277660168379134e-02
2.098623609541729365e+03 5.623413251903491145e-02
2.216814272422598606e+03 1.000000000000000056e-01
2.384721664967333709e+03 1.778279410038922925e-01
2.577370524822907100e+03 3.162277660168379412e-01
2.768341408731416323e+03 5.623413251903490728e-01
2.961039568283907101e+03 1.000000000000000000e+00
3.159170497400345994e+03 1.778279410038922759e+00
3.365324717020303524e+03 3.162277660168379523e+00
3.582710637998813581e+03 5.623413251903491172e+00
3.815803326393622683e+03 1.000000000000000000e+01
4.069977209531632070e+03 1.778279410038922848e+01
4.353175596664664226e+03 3.162277660168379256e+01
4.671604964314833524e+03 5.623413251903490817e+01
5.034024096388489852e+03 1.000000000000000000e+02
5.444608793715385218e+03 1.778279410038922776e+02
5.931290668613045455e+03 3.162277660168379612e+02
