# Temperature (K), Pressure (bars)
2.028945794122033021e+03 9.999999999999999547e-07
2.053302776249585349e+03 1.778279410038922901e-06
2.077659758377136313e+03 3.162277660168379191e-06
2.106138138178356257e+03 5.623413251903491208e-06
2.139497683762709130e+03 1.000000000000000082e-05
2.178800436711453585e+03 1.778279410038922901e-05
2.223231216451119053e+03 3.162277660168379530e-05
2.271107689789152118e+03 5.623413251903490700e-05
2.321685263356670021e+03 1.000000000000000048e-04
2.372614941487100623e+03 1.778279410038922698e-04
2.422644236007408381e+03 3.162277660168379394e-04
2.472505800607624678e+03 5.623413251903490971e-04
2.521974859172061770e+03 1.000000000000000021e-03
2.571987460979247771e+03 1.778279410038922752e-03
2.621335893899688926e+03 3.162277660168379394e-03
2.667536392620093920e+03 5.623413251903490971e-03
2.701631776374208130e+03 1.000000000000000021e-02
2.740680724578046465e+03 1.778279410038922925e-02
2.827838755856538683e+03 3.162277660168379134e-02
2.956736062600843525e+03 5.623413251903491145e-02
3.104294164934367473e+03 1.000000000000000056e-01
3.272443307634569464e+03 1.778279410038922925e-01
3.463484012892190549e+03 3.162277660168379412e-01
3.678168289322409692e+03 5.623413251903490728e-01
3.918415498195315649e+03 1.000000000000000000e+00
4.190785288115136609e+03 1.778279410038922759e+00
4.508612608436907067e+03 3.162277660168379523e+00
4.879211435539459671e+03 5.623413251903491172e+00
5.354551425198177640e+03 1.000000000000000000e+01
6.009076950880449658e+03 1.778279410038922848e+01
6.984239510924804563e+03 3.162277660168379256e+01
8.424289324958803263e+03 5.623413251903490817e+01
1.000000000000000000e+04 1.000000000000000000e+02
1.000000000000000000e+04 1.778279410038922776e+02
1.000000000000000000e+04 3.162277660168379612e+02
