# Temperature (K), Pressure (bars)
8.074253631857933442e+02 1.000000000000000048e-04
8.572940798120007457e+02 1.778279410038922698e-04
9.071627977491216370e+02 3.162277660168379394e-04
9.554980833123787534e+02 5.623413251903490971e-04
1.003664627066101843e+03 1.000000000000000021e-03
1.053147317363697312e+03 1.778279410038922752e-03
1.106035449907619977e+03 3.162277660168379394e-03
1.165040448235680515e+03 5.623413251903490971e-03
1.234545203618529058e+03 1.000000000000000021e-02
1.318396941734355096e+03 1.778279410038922925e-02
1.433557224829798997e+03 3.162277660168379134e-02
1.617052490455885163e+03 5.623413251903491145e-02
1.864781378042506958e+03 1.000000000000000056e-01
2.124892413827397831e+03 1.778279410038922925e-01
2.368148165749453710e+03 3.162277660168379412e-01
2.593321270687690230e+03 5.623413251903490728e-01
2.805009863704419786e+03 1.000000000000000000e+00
3.010818675312647429e+03 1.778279410038922759e+00
3.217994089987563257e+03 3.162277660168379523e+00
3.432814281720353392e+03 5.623413251903491172e+00
3.660727045377302147e+03 1.000000000000000000e+01
3.907054926214546867e+03 1.778279410038922848e+01
4.179895372963265800e+03 3.162277660168379256e+01
4.483678474688221286e+03 5.623413251903490817e+01
4.825977890463572294e+03 1.000000000000000000e+02
5.210338671689186413e+03 1.778279410038922776e+02
5.660821113913826593e+03 3.162277660168379612e+02
