# Temperature (K), Pressure (bars)
1.081358693438854743e+03 3.162277660168379530e-05
1.137905357421002464e+03 5.623413251903490700e-05
1.194452026653632856e+03 1.000000000000000048e-04
1.259086334258320221e+03 1.778279410038922698e-04
1.321310172898672363e+03 3.162277660168379394e-04
1.376348849640386106e+03 5.623413251903490971e-04
1.428007969091080895e+03 1.000000000000000021e-03
1.488009594737481166e+03 1.778279410038922752e-03
1.571172333225414832e+03 3.162277660168379394e-03
1.654754518382600736e+03 5.623413251903490971e-03
1.719195622545258175e+03 1.000000000000000021e-02
1.777342414419899796e+03 1.778279410038922925e-02
1.839669146709104552e+03 3.162277660168379134e-02
1.908265980447633183e+03 5.623413251903491145e-02
1.990400506410132493e+03 1.000000000000000056e-01
2.089182228693198340e+03 1.778279410038922925e-01
2.219061750742762797e+03 3.162277660168379412e-01
2.406736881180580895e+03 5.623413251903490728e-01
2.628077519258774828e+03 1.000000000000000000e+00
2.848087347056253293e+03 1.778279410038922759e+00
3.066910690920751222e+03 3.162277660168379523e+00
3.290219408790505440e+03 5.623413251903491172e+00
3.522582574785806173e+03 1.000000000000000000e+01
3.769172221247169091e+03 1.778279410038922848e+01
4.037488309215951176e+03 3.162277660168379256e+01
4.333227214779079077e+03 5.623413251903490817e+01
4.663543927627434641e+03 1.000000000000000000e+02
5.032046421511999142e+03 1.778279410038922776e+02
5.459586752167956547e+03 3.162277660168379612e+02
