# Temperature (K), Pressure (bars)
9.359336390421609622e+02 3.162277660168379530e-05
9.834320775241097863e+02 5.623413251903490700e-05
1.030930515911070415e+03 1.000000000000000048e-04
1.073881164886574879e+03 1.778279410038922698e-04
1.116633945186277288e+03 3.162277660168379394e-04
1.162327706054398732e+03 5.623413251903490971e-04
1.212574439212484094e+03 1.000000000000000021e-03
1.269422557340286403e+03 1.778279410038922752e-03
1.338042494366403162e+03 3.162277660168379394e-03
1.427607864672220330e+03 5.623413251903490971e-03
1.540704527074751468e+03 1.000000000000000021e-02
1.667901222753811680e+03 1.778279410038922925e-02
1.796837070403522830e+03 3.162277660168379134e-02
1.931633716896264332e+03 5.623413251903491145e-02
2.105799945857122111e+03 1.000000000000000056e-01
2.323574999775924880e+03 1.778279410038922925e-01
2.539908376785061591e+03 3.162277660168379412e-01
2.740006426303001717e+03 5.623413251903490728e-01
2.937235402607943342e+03 1.000000000000000000e+00
3.136555133528747774e+03 1.778279410038922759e+00
3.341836077292796290e+03 3.162277660168379523e+00
3.557589468540823873e+03 5.623413251903491172e+00
3.788795114029533579e+03 1.000000000000000000e+01
4.040816517061623927e+03 1.778279410038922848e+01
4.321759144139663476e+03 3.162277660168379256e+01
4.637191169200572403e+03 5.623413251903490817e+01
4.995679689391204192e+03 1.000000000000000000e+02
5.401375723429933714e+03 1.778279410038922776e+02
5.881880394614342549e+03 3.162277660168379612e+02
