# Temperature (K), Pressure (bars)
2.161454395375811146e+03 9.999999999999999547e-07
2.185129147097564783e+03 1.778279410038922901e-06
2.208803898819319329e+03 3.162277660168379191e-06
2.234994770186138339e+03 5.623413251903491208e-06
2.264287623521694059e+03 1.000000000000000082e-05
2.297199863450822249e+03 1.778279410038922901e-05
2.333932575105317028e+03 3.162277660168379530e-05
2.373065675226506755e+03 5.623413251903490700e-05
2.412491437226130074e+03 1.000000000000000048e-04
2.450189211726820758e+03 1.778279410038922698e-04
2.484498345989668451e+03 3.162277660168379394e-04
2.515091918648990941e+03 5.623413251903490971e-04
2.543373051432199645e+03 1.000000000000000021e-03
2.571536482736786638e+03 1.778279410038922752e-03
2.602358380867222877e+03 3.162277660168379394e-03
2.638142146797598343e+03 5.623413251903490971e-03
2.682528469624209720e+03 1.000000000000000021e-02
2.737104091694273848e+03 1.778279410038922925e-02
2.810130111481174936e+03 3.162277660168379134e-02
2.916587770452443692e+03 5.623413251903491145e-02
3.051370139419411316e+03 1.000000000000000056e-01
3.203726808854202318e+03 1.778279410038922925e-01
3.375046941382596742e+03 3.162277660168379412e-01
3.568501442917844543e+03 5.623413251903490728e-01
3.786598294473652913e+03 1.000000000000000000e+00
4.032187196504957683e+03 1.778279410038922759e+00
4.311227531569891653e+03 3.162277660168379523e+00
4.635063338884434415e+03 5.623413251903491172e+00
5.013871689311316914e+03 1.000000000000000000e+01
5.486254854380262259e+03 1.778279410038922848e+01
6.101490759791990058e+03 3.162277660168379256e+01
6.943627091423402817e+03 5.623413251903490817e+01
8.160947092912783773e+03 1.000000000000000000e+02
9.872901737975080323e+03 1.778279410038922776e+02
1.196871588938893547e+04 3.162277660168379612e+02
