# Temperature (K), Pressure (bars)
9.400493372884893688e+02 1.000000000000000048e-04
9.933506206565654111e+02 1.778279410038922698e-04
1.046651902883030743e+03 3.162277660168379394e-04
1.093647606316013025e+03 5.623413251903490971e-04
1.133044179089384215e+03 1.000000000000000021e-03
1.166982529914150518e+03 1.778279410038922752e-03
1.199205701431684929e+03 3.162277660168379394e-03
1.231328832860566536e+03 5.623413251903490971e-03
1.262696755024419872e+03 1.000000000000000021e-02
1.293257838298383831e+03 1.778279410038922925e-02
1.324474494485037894e+03 3.162277660168379134e-02
1.358196726221844074e+03 5.623413251903491145e-02
1.395487293394351809e+03 1.000000000000000056e-01
1.452680567085719758e+03 1.778279410038922925e-01
1.539566799422484792e+03 3.162277660168379412e-01
1.655770949851054183e+03 5.623413251903490728e-01
1.799272855875248752e+03 1.000000000000000000e+00
1.995309178074246120e+03 1.778279410038922759e+00
2.274481015502085029e+03 3.162277660168379523e+00
2.576528252209277525e+03 5.623413251903491172e+00
2.856578885222957069e+03 1.000000000000000000e+01
3.131206631388614824e+03 1.778279410038922848e+01
3.409285068305231562e+03 3.162277660168379256e+01
3.697978835438257192e+03 5.623413251903490817e+01
4.004887355919872789e+03 1.000000000000000000e+02
4.334221760682184140e+03 1.778279410038922776e+02
4.701482610094774827e+03 3.162277660168379612e+02
