# Temperature (K), Pressure (bars)
1.124871524828211477e+03 5.623413251903490700e-05
1.157999555973741735e+03 1.000000000000000048e-04
1.191127590159716419e+03 1.778279410038922698e-04
1.229251822827318165e+03 3.162277660168379394e-04
1.272722039951160014e+03 5.623413251903490971e-04
1.320877522106261949e+03 1.000000000000000021e-03
1.373375593204375946e+03 1.778279410038922752e-03
1.431736335467086974e+03 3.162277660168379394e-03
1.496878131385175266e+03 5.623413251903490971e-03
1.567952242464583151e+03 1.000000000000000021e-02
1.645694923156969935e+03 1.778279410038922925e-02
1.738112026616436424e+03 3.162277660168379134e-02
1.856540869066177720e+03 5.623413251903491145e-02
1.987401654630802796e+03 1.000000000000000056e-01
2.143457002935379933e+03 1.778279410038922925e-01
2.354743187432707145e+03 3.162277660168379412e-01
2.579611010675737816e+03 5.623413251903490728e-01
2.787744972285238873e+03 1.000000000000000000e+00
2.993636679730502692e+03 1.778279410038922759e+00
3.203545884705278240e+03 3.162277660168379523e+00
3.421739627646801637e+03 5.623413251903491172e+00
3.652386958085774495e+03 1.000000000000000000e+01
3.900482571121947331e+03 1.778279410038922848e+01
4.173573428585503279e+03 3.162277660168379256e+01
4.477330358157084447e+03 5.623413251903490817e+01
4.819503932445857572e+03 1.000000000000000000e+02
5.203936807843182578e+03 1.778279410038922776e+02
5.654097624556698065e+03 3.162277660168379612e+02
