# Temperature (K), Pressure (bars)
1.004285226940811071e+03 3.162277660168379394e-04
1.052406231828037335e+03 5.623413251903490971e-04
1.100527238039709346e+03 1.000000000000000021e-03
1.148122471042611323e+03 1.778279410038922752e-03
1.197031208033781240e+03 3.162277660168379394e-03
1.248482681888127445e+03 5.623413251903490971e-03
1.303090478551744354e+03 1.000000000000000021e-02
1.363266907128493131e+03 1.778279410038922925e-02
1.439149729506154017e+03 3.162277660168379134e-02
1.552108532360847448e+03 5.623413251903491145e-02
1.707197633043219639e+03 1.000000000000000056e-01
1.902032476222965897e+03 1.778279410038922925e-01
2.137331744775906827e+03 3.162277660168379412e-01
2.383304160471987416e+03 5.623413251903490728e-01
2.615960547296875575e+03 1.000000000000000000e+00
2.839358023309774580e+03 1.778279410038922759e+00
3.059762002892973669e+03 3.162277660168379523e+00
3.283027084374633887e+03 5.623413251903491172e+00
3.514679295566525980e+03 1.000000000000000000e+01
3.760492114840414160e+03 1.778279410038922848e+01
4.028245546512902820e+03 3.162277660168379256e+01
4.323222548128838753e+03 5.623413251903490817e+01
4.652453886510871598e+03 1.000000000000000000e+02
5.018990010952335979e+03 1.778279410038922776e+02
5.444339038653963144e+03 3.162277660168379612e+02
