# Temperature (K), Pressure (bars)
1.749532836274758438e+03 9.999999999999999547e-07
1.756527807997857280e+03 1.778279410038922901e-06
1.763522779723472468e+03 3.162277660168379191e-06
1.774972621605232234e+03 5.623413251903491208e-06
1.792889759235730708e+03 1.000000000000000082e-05
1.818862714641570392e+03 1.778279410038922901e-05
1.849853106864895835e+03 3.162277660168379530e-05
1.884240457601813432e+03 5.623413251903490700e-05
1.923312692890322523e+03 1.000000000000000048e-04
1.965820536463309054e+03 1.778279410038922698e-04
2.011611415185275291e+03 3.162277660168379394e-04
2.061558416665550794e+03 5.623413251903490971e-04
2.115253032330722817e+03 1.000000000000000021e-03
2.174394163187033428e+03 1.778279410038922752e-03
2.238793111403581861e+03 3.162277660168379394e-03
2.316366432163088120e+03 5.623413251903490971e-03
2.420088753371662278e+03 1.000000000000000021e-02
2.540823123024511005e+03 1.778279410038922925e-02
2.668129437578410034e+03 3.162277660168379134e-02
2.804069105995602513e+03 5.623413251903491145e-02
2.950186355317429843e+03 1.000000000000000056e-01
3.108526384104810859e+03 1.778279410038922925e-01
3.281378144936786157e+03 3.162277660168379412e-01
3.470548746380341981e+03 5.623413251903490728e-01
3.677316141167016212e+03 1.000000000000000000e+00
3.904115552502034461e+03 1.778279410038922759e+00
4.156201501308423758e+03 3.162277660168379523e+00
4.442033788799852118e+03 5.623413251903491172e+00
4.773840542037770319e+03 1.000000000000000000e+01
5.167563338637012748e+03 1.778279410038922848e+01
5.654153657942985774e+03 3.162277660168379256e+01
6.281529860491335967e+03 5.623413251903490817e+01
7.136267663927994363e+03 1.000000000000000000e+02
8.355202429167011360e+03 1.778279410038922776e+02
1.004346761014514232e+04 3.162277660168379612e+02
