# Temperature (K), Pressure (bars)
1.513856041940650357e+03 9.999999999999999547e-07
1.612511120953159207e+03 1.778279410038922901e-06
1.711166199973625453e+03 3.162277660168379191e-06
1.798578492838417333e+03 5.623413251903491208e-06
1.868934962881874981e+03 1.000000000000000082e-05
1.924594952707218454e+03 1.778279410038922901e-05
1.969827750036147791e+03 3.162277660168379530e-05
2.009676194682960613e+03 5.623413251903490700e-05
2.047581937184928847e+03 1.000000000000000048e-04
2.085373416680114133e+03 1.778279410038922698e-04
2.125612605843184610e+03 3.162277660168379394e-04
2.170373096244241879e+03 5.623413251903490971e-04
2.221375005435598723e+03 1.000000000000000021e-03
2.281131150852681458e+03 1.778279410038922752e-03
2.351017151074221601e+03 3.162277660168379394e-03
2.434118506393796906e+03 5.623413251903490971e-03
2.535058646102020703e+03 1.000000000000000021e-02
2.651338028339378070e+03 1.778279410038922925e-02
2.780152795870274986e+03 3.162277660168379134e-02
2.923701771961711984e+03 5.623413251903491145e-02
3.084206071825397885e+03 1.000000000000000056e-01
3.262785017466294903e+03 1.778279410038922925e-01
3.458943701967554262e+03 3.162277660168379412e-01
3.673157089591642034e+03 5.623413251903490728e-01
3.907782591547148513e+03 1.000000000000000000e+00
4.172207129581522167e+03 1.778279410038922759e+00
4.479303867958553383e+03 3.162277660168379523e+00
4.839853380902470235e+03 5.623413251903491172e+00
5.294719434191376422e+03 1.000000000000000000e+01
5.898655988180007625e+03 1.778279410038922848e+01
6.745488031708953713e+03 3.162277660168379256e+01
7.993976838536836112e+03 5.623413251903490817e+01
9.731648963395444298e+03 1.000000000000000000e+02
1.184752137083349407e+04 1.778279410038922776e+02
1.436550022076431378e+04 3.162277660168379612e+02
