# Temperature (K), Pressure (bars)
1.782832743311204695e+03 9.999999999999999547e-07
1.795086521373209735e+03 1.778279410038922901e-06
1.807340299435413726e+03 3.162277660168379191e-06
1.828931474703290405e+03 5.623413251903491208e-06
1.857066486193054970e+03 1.000000000000000082e-05
1.889542453086743990e+03 1.778279410038922901e-05
1.926972652024694526e+03 3.162277660168379530e-05
1.966501955348005140e+03 5.623413251903490700e-05
2.006457260949001693e+03 1.000000000000000048e-04
2.046249597023801471e+03 1.778279410038922698e-04
2.085220984855575807e+03 3.162277660168379394e-04
2.124667637994002689e+03 5.623413251903490971e-04
2.166713169220254258e+03 1.000000000000000021e-03
2.212250357612525477e+03 1.778279410038922752e-03
2.263734543567806668e+03 3.162277660168379394e-03
2.322474494435641645e+03 5.623413251903490971e-03
2.396182316862918015e+03 1.000000000000000021e-02
2.497883804352514289e+03 1.778279410038922925e-02
2.620719124254704184e+03 3.162277660168379134e-02
2.753183810814977733e+03 5.623413251903491145e-02
2.895335471116390181e+03 1.000000000000000056e-01
3.048851065667463899e+03 1.778279410038922925e-01
3.215820514806625397e+03 3.162277660168379412e-01
3.398271059575613435e+03 5.623413251903490728e-01
3.597686224823191878e+03 1.000000000000000000e+00
3.815776570864295536e+03 1.778279410038922759e+00
4.056166658196007120e+03 3.162277660168379523e+00
4.325225421466040643e+03 5.623413251903491172e+00
4.632245188761829013e+03 1.000000000000000000e+01
4.989839589091727248e+03 1.778279410038922848e+01
5.419062089146012113e+03 3.162277660168379256e+01
5.949153327908516985e+03 5.623413251903490817e+01
6.627881990440638219e+03 1.000000000000000000e+02
7.537464933257831945e+03 1.778279410038922776e+02
8.811584511528963048e+03 3.162277660168379612e+02
