# Temperature (K), Pressure (bars)
8.928361310080822477e+02 3.162277660168379394e-04
9.433482377792689704e+02 5.623413251903490971e-04
9.938603462950319454e+02 1.000000000000000021e-03
1.043948508564185431e+03 1.778279410038922752e-03
1.093254104149522163e+03 3.162277660168379394e-03
1.142995274473662221e+03 5.623413251903490971e-03
1.195197711704057838e+03 1.000000000000000021e-02
1.254734348308106064e+03 1.778279410038922925e-02
1.327552654643516007e+03 3.162277660168379134e-02
1.454385849422243382e+03 5.623413251903491145e-02
1.671091865378449711e+03 1.000000000000000056e-01
1.931455997999097463e+03 1.778279410038922925e-01
2.189109618451590450e+03 3.162277660168379412e-01
2.435349665065232784e+03 5.623413251903490728e-01
2.666049024514869870e+03 1.000000000000000000e+00
2.885965651129493381e+03 1.778279410038922759e+00
3.102192799002340053e+03 3.162277660168379523e+00
3.321806088599490522e+03 5.623413251903491172e+00
3.551176582225178663e+03 1.000000000000000000e+01
3.796148684380585109e+03 1.778279410038922848e+01
4.064770980955322557e+03 3.162277660168379256e+01
4.361608092327840495e+03 5.623413251903490817e+01
4.693767851620042165e+03 1.000000000000000000e+02
5.064523737116225675e+03 1.778279410038922776e+02
5.495668404306729826e+03 3.162277660168379612e+02
