# Temperature (K), Pressure (bars)
9.012369696166445010e+02 5.623413251903490971e-04
9.400112051881401385e+02 1.000000000000000021e-03
9.787854411387638720e+02 1.778279410038922752e-03
1.019022134710026194e+03 3.162277660168379394e-03
1.060925411309318633e+03 5.623413251903490971e-03
1.104187419408056712e+03 1.000000000000000021e-02
1.148735800189577958e+03 1.778279410038922925e-02
1.196080892154908724e+03 3.162277660168379134e-02
1.247517848129339882e+03 5.623413251903491145e-02
1.307572720896866713e+03 1.000000000000000056e-01
1.394193349062756170e+03 1.778279410038922925e-01
1.525621143094594800e+03 3.162277660168379412e-01
1.707109215490670977e+03 5.623413251903490728e-01
1.944194750265723087e+03 1.000000000000000000e+00
2.222637526937837720e+03 1.778279410038922759e+00
2.504098610088382429e+03 3.162277660168379523e+00
2.772956652261701493e+03 5.623413251903491172e+00
3.034903117192623995e+03 1.000000000000000000e+01
3.296254477165880417e+03 1.778279410038922848e+01
3.566499522274856645e+03 3.162277660168379256e+01
3.852074398665403351e+03 5.623413251903490817e+01
4.160137109528387555e+03 1.000000000000000000e+02
4.494199233108325643e+03 1.778279410038922776e+02
4.870801663437179741e+03 3.162277660168379612e+02
