# Temperature (K), Pressure (bars)
1.664647516631117469e+03 9.999999999999999547e-07
1.670877100472507436e+03 1.778279410038922901e-06
1.677106684314718905e+03 3.162277660168379191e-06
1.687855371758268802e+03 5.623413251903491208e-06
1.705831042814564626e+03 1.000000000000000082e-05
1.729932959610221587e+03 1.778279410038922901e-05
1.759842020081674946e+03 3.162277660168379530e-05
1.798210966767821446e+03 5.623413251903490700e-05
1.844756850999505787e+03 1.000000000000000048e-04
1.897357193324630316e+03 1.778279410038922698e-04
1.955306495757853781e+03 3.162277660168379394e-04
2.017919554173643974e+03 5.623413251903490971e-04
2.085479632919983942e+03 1.000000000000000021e-03
2.157548197655808508e+03 1.778279410038922752e-03
2.242001953685871740e+03 3.162277660168379394e-03
2.348691610288159154e+03 5.623413251903490971e-03
2.468155110390189748e+03 1.000000000000000021e-02
2.592340731856177626e+03 1.778279410038922925e-02
2.723992365565777163e+03 3.162277660168379134e-02
2.864493790808449376e+03 5.623413251903491145e-02
3.015459606733463715e+03 1.000000000000000056e-01
3.178951597684403623e+03 1.778279410038922925e-01
3.357458548127736321e+03 3.162277660168379412e-01
3.553360461078407297e+03 5.623413251903490728e-01
3.769132272257666045e+03 1.000000000000000000e+00
4.008521927259770564e+03 1.778279410038922759e+00
4.278403085557225495e+03 3.162277660168379523e+00
4.589882758405214190e+03 5.623413251903491172e+00
4.955032695141477234e+03 1.000000000000000000e+01
5.407057845606143019e+03 1.778279410038922848e+01
5.992585817968149968e+03 3.162277660168379256e+01
6.794522835963455691e+03 5.623413251903490817e+01
7.952423982312189764e+03 1.000000000000000000e+02
9.590515481982449273e+03 1.778279410038922776e+02
1.162038479885633024e+04 3.162277660168379612e+02
