# Temperature (K), Pressure (bars)
2.317597072839074372e+03 9.999999999999999547e-07
2.347571231616250770e+03 1.778279410038922901e-06
2.377545390395531285e+03 3.162277660168379191e-06
2.405950803740368428e+03 5.623413251903491208e-06
2.432623173972517179e+03 1.000000000000000082e-05
2.458198735802875490e+03 1.778279410038922901e-05
2.482863649704578165e+03 3.162277660168379530e-05
2.508049138619164296e+03 5.623413251903490700e-05
2.537002285183345066e+03 1.000000000000000048e-04
2.573898566655720970e+03 1.778279410038922698e-04
2.622595750667983339e+03 3.162277660168379394e-04
2.684871154640555687e+03 5.623413251903490971e-04
2.761075774739788358e+03 1.000000000000000021e-03
2.851009739758800606e+03 1.778279410038922752e-03
2.954687138654870978e+03 3.162277660168379394e-03
3.070590350966724145e+03 5.623413251903490971e-03
3.199760266831879562e+03 1.000000000000000021e-02
3.341530868039106281e+03 1.778279410038922925e-02
3.493156430586330771e+03 3.162277660168379134e-02
3.770649643014713092e+03 5.623413251903491145e-02
4.211584029431621275e+03 1.000000000000000056e-01
5.015352218088038171e+03 1.778279410038922925e-01
6.187795638527264600e+03 3.162277660168379412e-01
7.653130764162969172e+03 5.623413251903490728e-01
9.094348925600830626e+03 1.000000000000000000e+00
1.045515828266197241e+04 1.778279410038922759e+00
1.199766767456854359e+04 3.162277660168379523e+00
1.395693271063795873e+04 5.623413251903491172e+00
1.644522153279179838e+04 1.000000000000000000e+01
1.959898964663181687e+04 1.778279410038922848e+01
2.357992223416649722e+04 3.162277660168379256e+01
2.857054707798758318e+04 5.623413251903490817e+01
3.476083484343596501e+04 1.000000000000000000e+02
4.231685590541957208e+04 1.778279410038922776e+02
5.133066107416144223e+04 3.162277660168379612e+02
