# Temperature (K), Pressure (bars)
8.968975875804053430e+02 5.623413251903490700e-05
9.545701707847143780e+02 1.000000000000000048e-04
1.012242754622928032e+03 1.778279410038922698e-04
1.063969152716691951e+03 3.162277660168379394e-04
1.107451207364880020e+03 5.623413251903490971e-04
1.142502810092732716e+03 1.000000000000000021e-03
1.173643444435497941e+03 1.778279410038922752e-03
1.204552196285342688e+03 3.162277660168379394e-03
1.234966336265844575e+03 5.623413251903490971e-03
1.267045315066987314e+03 1.000000000000000021e-02
1.302007364622818159e+03 1.778279410038922925e-02
1.339586534171229232e+03 3.162277660168379134e-02
1.379068249344330070e+03 5.623413251903491145e-02
1.424060463972778052e+03 1.000000000000000056e-01
1.500214570415679418e+03 1.778279410038922925e-01
1.621367860015221822e+03 3.162277660168379412e-01
1.795882892035417626e+03 5.623413251903490728e-01
2.038265209787220329e+03 1.000000000000000000e+00
2.313845979404113677e+03 1.778279410038922759e+00
2.584562251439044303e+03 3.162277660168379523e+00
2.846321866009217956e+03 5.623413251903491172e+00
3.102067414322188142e+03 1.000000000000000000e+01
3.359138378312911300e+03 1.778279410038922848e+01
3.627338443966850718e+03 3.162277660168379256e+01
3.912720839777855417e+03 5.623413251903490817e+01
4.222203792773341775e+03 1.000000000000000000e+02
4.559354260317275475e+03 1.778279410038922776e+02
4.940660663560402099e+03 3.162277660168379612e+02
