# Temperature (K), Pressure (bars)
8.747009139187096025e+02 5.623413251903490971e-04
9.104661598656169872e+02 1.000000000000000021e-03
9.462314063309527228e+02 1.778279410038922752e-03
9.819802888878651856e+02 3.162277660168379394e-03
1.019609584568412970e+03 5.623413251903490971e-03
1.058735667941512702e+03 1.000000000000000021e-02
1.098761275126728378e+03 1.778279410038922925e-02
1.141249038165158026e+03 3.162277660168379134e-02
1.188950637001128143e+03 5.623413251903491145e-02
1.246054627629511515e+03 1.000000000000000056e-01
1.314269269215592885e+03 1.778279410038922925e-01
1.408749844384151857e+03 3.162277660168379412e-01
1.562395640008785676e+03 5.623413251903490728e-01
1.787482208547065966e+03 1.000000000000000000e+00
2.060204930775699722e+03 1.778279410038922759e+00
2.345503571438165181e+03 3.162277660168379523e+00
2.626170585686262712e+03 5.623413251903491172e+00
2.900498795629755932e+03 1.000000000000000000e+01
3.171190200806509893e+03 1.778279410038922848e+01
3.447226115243844561e+03 3.162277660168379256e+01
3.735054023591912028e+03 5.623413251903490817e+01
4.042240622152004107e+03 1.000000000000000000e+02
4.373013627648319016e+03 1.778279410038922776e+02
4.742660246916287178e+03 3.162277660168379612e+02
