# Temperature (K), Pressure (bars)
1.512643682044348679e+03 9.999999999999999547e-07
1.545495843103627521e+03 1.778279410038922901e-06
1.578348004162906363e+03 3.162277660168379191e-06
1.615965233180816540e+03 5.623413251903491208e-06
1.658484435126352537e+03 1.000000000000000082e-05
1.705832465580107510e+03 1.778279410038922901e-05
1.757025833607084905e+03 3.162277660168379530e-05
1.812802828330165994e+03 5.623413251903490700e-05
1.872758289248887650e+03 1.000000000000000048e-04
1.935466301819235468e+03 1.778279410038922698e-04
2.001930044048216587e+03 3.162277660168379394e-04
2.072638229697654424e+03 5.623413251903490971e-04
2.152175055862037425e+03 1.000000000000000021e-03
2.249024983288892599e+03 1.778279410038922752e-03
2.361269789289552136e+03 3.162277660168379394e-03
2.481861475538833474e+03 5.623413251903490971e-03
2.609432440026747372e+03 1.000000000000000021e-02
2.744907523794604458e+03 1.778279410038922925e-02
2.889960779435316454e+03 3.162277660168379134e-02
3.047160902774232909e+03 5.623413251903491145e-02
3.219974198594647532e+03 1.000000000000000056e-01
3.412097999179352882e+03 1.778279410038922925e-01
3.626965470313082733e+03 3.162277660168379412e-01
3.869611673042735219e+03 5.623413251903490728e-01
4.151220713945234820e+03 1.000000000000000000e+00
4.464593585730038285e+03 1.778279410038922759e+00
4.864616537019567659e+03 3.162277660168379523e+00
5.416024466588155519e+03 5.623413251903491172e+00
6.238248303212184510e+03 1.000000000000000000e+01
7.497763681711359823e+03 1.778279410038922848e+01
9.200464767759460301e+03 3.162277660168379256e+01
1.121015518570958193e+04 5.623413251903490817e+01
1.363885871738787864e+04 1.000000000000000000e+02
1.660328102391894572e+04 1.778279410038922776e+02
2.013980767139562886e+04 3.162277660168379612e+02
