# Temperature (K), Pressure (bars)
1.547197047031101647e+03 3.162277660168379530e-05
1.567453055028303879e+03 5.623413251903490700e-05
1.587709065545620433e+03 1.000000000000000048e-04
1.614215411537483988e+03 1.778279410038922698e-04
1.645337863725484340e+03 3.162277660168379394e-04
1.680853779815966845e+03 5.623413251903490971e-04
1.721651100176981117e+03 1.000000000000000021e-03
1.765605475468782060e+03 1.778279410038922752e-03
1.813735187608613842e+03 3.162277660168379394e-03
1.865833844908096125e+03 5.623413251903490971e-03
1.920523048347536587e+03 1.000000000000000021e-02
1.978522023119730193e+03 1.778279410038922925e-02
2.041609685518568540e+03 3.162277660168379134e-02
2.112906511987603608e+03 5.623413251903491145e-02
2.196143586892374515e+03 1.000000000000000056e-01
2.300777016006039503e+03 1.778279410038922925e-01
2.451735324017424318e+03 3.162277660168379412e-01
2.649062495034855147e+03 5.623413251903490728e-01
2.853758023984890315e+03 1.000000000000000000e+00
3.053690495004349941e+03 1.778279410038922759e+00
3.260621230210439535e+03 3.162277660168379523e+00
3.478390096363814791e+03 5.623413251903491172e+00
3.710285099438184261e+03 1.000000000000000000e+01
3.960844002725274549e+03 1.778279410038922848e+01
4.237266297701648000e+03 3.162277660168379256e+01
4.545893916410622296e+03 5.623413251903490817e+01
4.894816871532252662e+03 1.000000000000000000e+02
5.287898295143781979e+03 1.778279410038922776e+02
5.750580232890981279e+03 3.162277660168379612e+02
