# Temperature (K), Pressure (bars)
7.957893336940421705e+02 1.000000000000000048e-04
8.403041727372287824e+02 1.778279410038922698e-04
8.848190131391858131e+02 3.162277660168379394e-04
9.284972351051198984e+02 5.623413251903490971e-04
9.720358952723845505e+02 1.000000000000000021e-03
1.016182957014964359e+03 1.778279410038922752e-03
1.062280908784426174e+03 3.162277660168379394e-03
1.112281154762447613e+03 5.623413251903490971e-03
1.173510843232440493e+03 1.000000000000000021e-02
1.246182398070503268e+03 1.778279410038922925e-02
1.359661837269349007e+03 3.162277660168379134e-02
1.554938812849037049e+03 5.623413251903491145e-02
1.801128802842436016e+03 1.000000000000000056e-01
2.060462811917973340e+03 1.778279410038922925e-01
2.315808932019353506e+03 3.162277660168379412e-01
2.550845868450435319e+03 5.623413251903490728e-01
2.768468612295168441e+03 1.000000000000000000e+00
2.977357871494896699e+03 1.778279410038922759e+00
3.186069680291318946e+03 3.162277660168379523e+00
3.401492239585952575e+03 5.623413251903491172e+00
3.629277362417327367e+03 1.000000000000000000e+01
3.874827669561859693e+03 1.778279410038922848e+01
4.146219048028601719e+03 3.162277660168379256e+01
4.447699027692566233e+03 5.623413251903490817e+01
4.786619312223849192e+03 1.000000000000000000e+02
5.166377916845976870e+03 1.778279410038922776e+02
5.610062613303536637e+03 3.162277660168379612e+02
