# Temperature (K), Pressure (bars)
8.679962411765224033e+02 3.162277660168379394e-04
9.222444737513264954e+02 5.623413251903490971e-04
9.764927073700503115e+02 1.000000000000000021e-03
1.029182198704201255e+03 1.778279410038922752e-03
1.081031178456428279e+03 3.162277660168379394e-03
1.134646207218295558e+03 5.623413251903490971e-03
1.193057415909586780e+03 1.000000000000000021e-02
1.259946305802974621e+03 1.778279410038922925e-02
1.341525174436238103e+03 3.162277660168379134e-02
1.446586639687514889e+03 5.623413251903491145e-02
1.603507583646361354e+03 1.000000000000000056e-01
1.830614738678455069e+03 1.778279410038922925e-01
2.090568836846398881e+03 3.162277660168379412e-01
2.344614393759689847e+03 5.623413251903490728e-01
2.584758348688317255e+03 1.000000000000000000e+00
2.812566270651867399e+03 1.778279410038922759e+00
3.034452280142646487e+03 3.162277660168379523e+00
3.257496405813294587e+03 5.623413251903491172e+00
3.488318153175408952e+03 1.000000000000000000e+01
3.733091329800580297e+03 1.778279410038922848e+01
4.000019216615351070e+03 3.162277660168379256e+01
4.293638506817276721e+03 5.623413251903490817e+01
4.620858229236017905e+03 1.000000000000000000e+02
4.985180519857396575e+03 1.778279410038922776e+02
5.406942278229656949e+03 3.162277660168379612e+02
