# Temperature (K), Pressure (bars)
7.801822176091116035e+02 9.999999999999999547e-07
8.046868537509824364e+02 1.778279410038922901e-06
8.291914899122132283e+02 3.162277660168379191e-06
8.561115198217503348e+02 5.623413251903491208e-06
8.869196516148898581e+02 1.000000000000000082e-05
9.213119992670692682e+02 1.778279410038922901e-05
9.582015315481969537e+02 3.162277660168379530e-05
9.981931760908280467e+02 5.623413251903490700e-05
1.041789278729706894e+03 1.000000000000000048e-04
1.088601586414831218e+03 1.778279410038922698e-04
1.138546118854476390e+03 3.162277660168379394e-04
1.191873495912386034e+03 5.623413251903490971e-04
1.249500201915387152e+03 1.000000000000000021e-03
1.313601112823020685e+03 1.778279410038922752e-03
1.387918185397298203e+03 3.162277660168379394e-03
1.481171362300505734e+03 5.623413251903490971e-03
1.603613181541983522e+03 1.000000000000000021e-02
1.778792449039794519e+03 1.778279410038922925e-02
2.007784209494200013e+03 3.162277660168379134e-02
2.237798076131706239e+03 5.623413251903491145e-02
2.442426417436544398e+03 1.000000000000000056e-01
2.633215787430681303e+03 1.778279410038922925e-01
2.816967361970599541e+03 3.162277660168379412e-01
2.998804662217673467e+03 5.623413251903490728e-01
3.183083320814372655e+03 1.000000000000000000e+00
3.374367209246071070e+03 1.778279410038922759e+00
3.577327599854848813e+03 3.162277660168379523e+00
3.796552228062747417e+03 5.623413251903491172e+00
4.036855320995073271e+03 1.000000000000000000e+01
4.303791401360071177e+03 1.778279410038922848e+01
4.604239850653078975e+03 3.162277660168379256e+01
4.947486627525709991e+03 5.623413251903490817e+01
5.350302298286074802e+03 1.000000000000000000e+02
5.824683053273818587e+03 1.778279410038922776e+02
6.393827774795848200e+03 3.162277660168379612e+02
