# Temperature (K), Pressure (bars)
9.287404471914283022e+02 5.623413251903490971e-04
9.774206906118339475e+02 1.000000000000000021e-03
1.026100935907297298e+03 1.778279410038922752e-03
1.074512038253545825e+03 3.162277660168379394e-03
1.122938964744440909e+03 5.623413251903490971e-03
1.172209432080318720e+03 1.000000000000000021e-02
1.224643099847355870e+03 1.778279410038922925e-02
1.283015673285585081e+03 3.162277660168379134e-02
1.360124858344929635e+03 5.623413251903491145e-02
1.498586381227965148e+03 1.000000000000000056e-01
1.718633717157951423e+03 1.778279410038922925e-01
1.977819797443123889e+03 3.162277660168379412e-01
2.238611084359843971e+03 5.623413251903490728e-01
2.490162954851258746e+03 1.000000000000000000e+00
2.728838739930219162e+03 1.778279410038922759e+00
2.959165452877892676e+03 3.162277660168379523e+00
3.187817403735391053e+03 5.623413251903491172e+00
3.421692379428533968e+03 1.000000000000000000e+01
3.667396374245219704e+03 1.778279410038922848e+01
3.933278183881622226e+03 3.162277660168379256e+01
4.224200125043962544e+03 5.623413251903490817e+01
4.546977338233222326e+03 1.000000000000000000e+02
4.905057759678014918e+03 1.778279410038922776e+02
5.317742311340407468e+03 3.162277660168379612e+02
