# Temperature (K), Pressure (bars)
2.258094367393392531e+03 9.999999999999999547e-07
2.261259223203191596e+03 1.778279410038922901e-06
2.264424079012989750e+03 3.162277660168379191e-06
2.290835148618859421e+03 5.623413251903491208e-06
2.323754986491418094e+03 1.000000000000000082e-05
2.357208835914576866e+03 1.778279410038922901e-05
2.397255434029203116e+03 3.162277660168379530e-05
2.444361614152816855e+03 5.623413251903490700e-05
2.499040515719711493e+03 1.000000000000000048e-04
2.559748549834134337e+03 1.778279410038922698e-04
2.624588463118219352e+03 3.162277660168379394e-04
2.692477558761293949e+03 5.623413251903490971e-04
2.761234925757702513e+03 1.000000000000000021e-03
2.827558869492381291e+03 1.778279410038922752e-03
2.888873955653648409e+03 3.162277660168379394e-03
2.946813290246377164e+03 5.623413251903490971e-03
3.004644110486439786e+03 1.000000000000000021e-02
3.066616084907078857e+03 1.778279410038922925e-02
3.126362272712273807e+03 3.162277660168379134e-02
3.210619040786799815e+03 5.623413251903491145e-02
3.365773900356005925e+03 1.000000000000000056e-01
3.554930021965590640e+03 1.778279410038922925e-01
3.774111738626400438e+03 3.162277660168379412e-01
4.037350852600043709e+03 5.623413251903490728e-01
4.344994888098241972e+03 1.000000000000000000e+00
4.748968462189714955e+03 1.778279410038922759e+00
5.336882219355791676e+03 3.162277660168379523e+00
6.282634965351880965e+03 5.623413251903491172e+00
7.700344929069126010e+03 1.000000000000000000e+01
9.440594665942104257e+03 1.778279410038922848e+01
1.000000000000000000e+04 3.162277660168379256e+01
1.000000000000000000e+04 5.623413251903490817e+01
1.000000000000000000e+04 1.000000000000000000e+02
1.000000000000000000e+04 1.778279410038922776e+02
1.000000000000000000e+04 3.162277660168379612e+02
