# Temperature (K), Pressure (bars)
1.020321489336212721e+03 5.623413251903490700e-05
1.074335551549097318e+03 1.000000000000000048e-04
1.128349617736368145e+03 1.778279410038922698e-04
1.185628874225087657e+03 3.162277660168379394e-04
1.246622305885760397e+03 5.623413251903490971e-04
1.306430451079292880e+03 1.000000000000000021e-03
1.364993481107607295e+03 1.778279410038922752e-03
1.434767502730015622e+03 3.162277660168379394e-03
1.513970083770862857e+03 5.623413251903490971e-03
1.598067578158087599e+03 1.000000000000000021e-02
1.695494823589382577e+03 1.778279410038922925e-02
1.789184323564245460e+03 3.162277660168379134e-02
1.868719894022423887e+03 5.623413251903491145e-02
1.955204197439988548e+03 1.000000000000000056e-01
2.058900576584115242e+03 1.778279410038922925e-01
2.193912953983584430e+03 3.162277660168379412e-01
2.384167939150462644e+03 5.623413251903490728e-01
2.608416465436826456e+03 1.000000000000000000e+00
2.831334648256815854e+03 1.778279410038922759e+00
3.051025969081352287e+03 3.162277660168379523e+00
3.274726136219458567e+03 5.623413251903491172e+00
3.507295788354819706e+03 1.000000000000000000e+01
3.753833242441004131e+03 1.778279410038922848e+01
4.021720816541710519e+03 3.162277660168379256e+01
4.316672507514452263e+03 5.623413251903490817e+01
4.645750187834037206e+03 1.000000000000000000e+02
5.012529549194775427e+03 1.778279410038922776e+02
5.437552957944126319e+03 3.162277660168379612e+02
