# Temperature (K), Pressure (bars)
9.307981662296091372e+02 9.999999999999999547e-07
9.547089573054257698e+02 1.778279410038922901e-06
9.786197483865032609e+02 3.162277660168379191e-06
1.006718826671961779e+03 5.623413251903491208e-06
1.038547250520105081e+03 1.000000000000000082e-05
1.073997990352545003e+03 1.778279410038922901e-05
1.113781120026785857e+03 3.162277660168379530e-05
1.157126096614310427e+03 5.623413251903490700e-05
1.204473175342756349e+03 1.000000000000000048e-04
1.256110396694109568e+03 1.778279410038922698e-04
1.312360598674012635e+03 3.162277660168379394e-04
1.375408796968824618e+03 5.623413251903490971e-04
1.448643039267758013e+03 1.000000000000000021e-03
1.534657707490898247e+03 1.778279410038922752e-03
1.637098604103305661e+03 3.162277660168379394e-03
1.751598643130911114e+03 5.623413251903490971e-03
1.881741318574681600e+03 1.000000000000000021e-02
2.047437044355155649e+03 1.778279410038922925e-02
2.236552729851787717e+03 3.162277660168379134e-02
2.421563647046360984e+03 5.623413251903491145e-02
2.598774294158145949e+03 1.000000000000000056e-01
2.773292521299854343e+03 1.778279410038922925e-01
2.948958544134019576e+03 3.162277660168379412e-01
3.128294935307333617e+03 5.623413251903490728e-01
3.313727572384672385e+03 1.000000000000000000e+00
3.508835730723029428e+03 1.778279410038922759e+00
3.718109420150547521e+03 3.162277660168379523e+00
3.946383357541747500e+03 5.623413251903491172e+00
4.199048261484419527e+03 1.000000000000000000e+01
4.482683445746853977e+03 1.778279410038922848e+01
4.806109999609607257e+03 3.162277660168379256e+01
5.184891639777870296e+03 5.623413251903490817e+01
5.631250285816083306e+03 1.000000000000000000e+02
6.168391573766987676e+03 1.778279410038922776e+02
6.830597756238049442e+03 3.162277660168379612e+02
