# Temperature (K), Pressure (bars)
1.066191168663018288e+03 3.162277660168379394e-04
1.104361109122449079e+03 5.623413251903490971e-04
1.142531057235589742e+03 1.000000000000000021e-03
1.215126414338642235e+03 1.778279410038922752e-03
1.324264868465158997e+03 3.162277660168379394e-03
1.476852273595996849e+03 5.623413251903490971e-03
1.601181907917968601e+03 1.000000000000000021e-02
1.658113097760690380e+03 1.778279410038922925e-02
1.691768858220475749e+03 3.162277660168379134e-02
1.723388521244649382e+03 5.623413251903491145e-02
1.757548478618699619e+03 1.000000000000000056e-01
1.797709484634221781e+03 1.778279410038922925e-01
1.847136214313635037e+03 3.162277660168379412e-01
1.906049986784196335e+03 5.623413251903490728e-01
1.982342085617058274e+03 1.000000000000000000e+00
2.084479430005043469e+03 1.778279410038922759e+00
2.258795380876993477e+03 3.162277660168379523e+00
2.538643701075251101e+03 5.623413251903491172e+00
2.841476969654331697e+03 1.000000000000000000e+01
3.119610784007358689e+03 1.778279410038922848e+01
3.398593684284439860e+03 3.162277660168379256e+01
3.687700796550142059e+03 5.623413251903490817e+01
3.994763637113464029e+03 1.000000000000000000e+02
4.324303275230053259e+03 1.778279410038922776e+02
4.691281242162749550e+03 3.162277660168379612e+02
