# Temperature (K), Pressure (bars)
9.653567713504971834e+02 5.623413251903490971e-04
1.005343589071106294e+03 1.000000000000000021e-03
1.045330408973054773e+03 1.778279410038922752e-03
1.087729043942037151e+03 3.162277660168379394e-03
1.132759403364795162e+03 5.623413251903490971e-03
1.179832160705758497e+03 1.000000000000000021e-02
1.228960170253320030e+03 1.778279410038922925e-02
1.279889823988724629e+03 3.162277660168379134e-02
1.334806055523562463e+03 5.623413251903491145e-02
1.399896041381047098e+03 1.000000000000000056e-01
1.481872361782880262e+03 1.778279410038922925e-01
1.586899501027779479e+03 3.162277660168379412e-01
1.724707915606740244e+03 5.623413251903490728e-01
1.887553582613230674e+03 1.000000000000000000e+00
2.089114233225488533e+03 1.778279410038922759e+00
2.355855325911019918e+03 3.162277660168379523e+00
2.643447934959139275e+03 5.623413251903491172e+00
2.916784949717330619e+03 1.000000000000000000e+01
3.186909843302907575e+03 1.778279410038922848e+01
3.462160857706317529e+03 3.162277660168379256e+01
3.749540604132047065e+03 5.623413251903490817e+01
4.056599401933911849e+03 1.000000000000000000e+02
4.387282155409859115e+03 1.778279410038922776e+02
4.757385515683080484e+03 3.162277660168379612e+02
