# Temperature (K), Pressure (bars)
8.436466425228744583e+02 1.000000000000000048e-04
8.945618391336590776e+02 1.778279410038922698e-04
9.454770369076529732e+02 3.162277660168379394e-04
9.956321830188383046e+02 5.623413251903490971e-04
1.045722584799954802e+03 1.000000000000000021e-03
1.096736138776202324e+03 1.778279410038922752e-03
1.149943764275082685e+03 3.162277660168379394e-03
1.207957957688553506e+03 5.623413251903490971e-03
1.273509089581129729e+03 1.000000000000000021e-02
1.354361183545335962e+03 1.778279410038922925e-02
1.467650415392977266e+03 3.162277660168379134e-02
1.640227280229318922e+03 5.623413251903491145e-02
1.874928139797608310e+03 1.000000000000000056e-01
2.128743619837089682e+03 1.778279410038922925e-01
2.368877762475070085e+03 3.162277660168379412e-01
2.592676525111869523e+03 5.623413251903490728e-01
2.804389519052431751e+03 1.000000000000000000e+00
3.010910635120288134e+03 1.778279410038922759e+00
3.218842390385144881e+03 3.162277660168379523e+00
3.434241529302259551e+03 5.623413251903491172e+00
3.662586865710431539e+03 1.000000000000000000e+01
3.909271155466561140e+03 1.778279410038922848e+01
4.182347923362976871e+03 3.162277660168379256e+01
4.486472982039041199e+03 5.623413251903490817e+01
4.829275526260205879e+03 1.000000000000000000e+02
5.214097608336164740e+03 1.778279410038922776e+02
5.665480536294906415e+03 3.162277660168379612e+02
