# Temperature (K), Pressure (bars)
1.054645037004079313e+03 1.000000000000000048e-04
1.084187143125280045e+03 1.778279410038922698e-04
1.113729245561845346e+03 3.162277660168379394e-04
1.141635853320389970e+03 5.623413251903490971e-04
1.168357358120254275e+03 1.000000000000000021e-03
1.193573966837040416e+03 1.778279410038922752e-03
1.219238889405841292e+03 3.162277660168379394e-03
1.254154907266382679e+03 5.623413251903490971e-03
1.310186550304259526e+03 1.000000000000000021e-02
1.379368773189639569e+03 1.778279410038922925e-02
1.462113397564817888e+03 3.162277660168379134e-02
1.571355094426657615e+03 5.623413251903491145e-02
1.675818567657771837e+03 1.000000000000000056e-01
1.763798750266000070e+03 1.778279410038922925e-01
1.863544447861687331e+03 3.162277660168379412e-01
1.998456415833378742e+03 5.623413251903490728e-01
2.206501520655474451e+03 1.000000000000000000e+00
2.474768674334480238e+03 1.778279410038922759e+00
2.740473898824551725e+03 3.162277660168379523e+00
2.988776097069864136e+03 5.623413251903491172e+00
3.234770911603719014e+03 1.000000000000000000e+01
3.486305662490862233e+03 1.778279410038922848e+01
3.752260882492827932e+03 3.162277660168379256e+01
4.038625403643234222e+03 5.623413251903490817e+01
4.352195930020810010e+03 1.000000000000000000e+02
4.696200359473401477e+03 1.778279410038922776e+02
5.088418391398977292e+03 3.162277660168379612e+02
