# Temperature (K), Pressure (bars)
2.123137337359190951e+03 9.999999999999999547e-07
2.123227637983288332e+03 1.778279410038922901e-06
2.123317938607384804e+03 3.162277660168379191e-06
2.142057210766411117e+03 5.623413251903491208e-06
2.167742250227282966e+03 1.000000000000000082e-05
2.194958344232254149e+03 1.778279410038922901e-05
2.227271980350687045e+03 3.162277660168379530e-05
2.265471515151860331e+03 5.623413251903490700e-05
2.310845984392295122e+03 1.000000000000000048e-04
2.361925729291592233e+03 1.778279410038922698e-04
2.415774528339758490e+03 3.162277660168379394e-04
2.470419731328280250e+03 5.623413251903490971e-04
2.523593916975937191e+03 1.000000000000000021e-03
2.573761388664673632e+03 1.778279410038922752e-03
2.621388381452703470e+03 3.162277660168379394e-03
2.665959376195035475e+03 5.623413251903490971e-03
2.710506486926319667e+03 1.000000000000000021e-02
2.753199097826933212e+03 1.778279410038922925e-02
2.805974680682854341e+03 3.162277660168379134e-02
2.900835834339167832e+03 5.623413251903491145e-02
3.033868389277758979e+03 1.000000000000000056e-01
3.185773744503732360e+03 1.778279410038922925e-01
3.357093230989528820e+03 3.162277660168379412e-01
3.550642482144768564e+03 5.623413251903490728e-01
3.767893421702985052e+03 1.000000000000000000e+00
4.010979277750163419e+03 1.778279410038922759e+00
4.285609486980834845e+03 3.162277660168379523e+00
4.602765203285442112e+03 5.623413251903491172e+00
4.972394104248834992e+03 1.000000000000000000e+01
5.431636573782178857e+03 1.778279410038922848e+01
6.031823693283400644e+03 3.162277660168379256e+01
6.868799088835057773e+03 5.623413251903490817e+01
8.089743625146368686e+03 1.000000000000000000e+02
9.788154205364420704e+03 1.778279410038922776e+02
1.000000000000000000e+04 3.162277660168379612e+02
