# Temperature (K), Pressure (bars)
1.784461905429019907e+03 9.999999999999999547e-07
1.794317460667594787e+03 1.778279410038922901e-06
1.804173015910295362e+03 3.162277660168379191e-06
1.818134966683455332e+03 5.623413251903491208e-06
1.837323658072546550e+03 1.000000000000000082e-05
1.860522652864943439e+03 1.778279410038922901e-05
1.887948685855576969e+03 3.162277660168379530e-05
1.920918516024237761e+03 5.623413251903490700e-05
1.957964022629895226e+03 1.000000000000000048e-04
1.998378576094567961e+03 1.778279410038922698e-04
2.042791726251482942e+03 3.162277660168379394e-04
2.091175170400780189e+03 5.623413251903490971e-04
2.143500543635492249e+03 1.000000000000000021e-03
2.201410342935290828e+03 1.778279410038922752e-03
2.265021367517830186e+03 3.162277660168379394e-03
2.341297209857428243e+03 5.623413251903490971e-03
2.441957196568804648e+03 1.000000000000000021e-02
2.560044137311345366e+03 1.778279410038922925e-02
2.686136443815754319e+03 3.162277660168379134e-02
2.821428383039455184e+03 5.623413251903491145e-02
2.967525244018277590e+03 1.000000000000000056e-01
3.126614587990147356e+03 1.778279410038922925e-01
3.301040949973295028e+03 3.162277660168379412e-01
3.492428076516280271e+03 5.623413251903490728e-01
3.701886339360786678e+03 1.000000000000000000e+00
3.932046833251131375e+03 1.778279410038922759e+00
4.188631119804886112e+03 3.162277660168379523e+00
4.480605247828250867e+03 5.623413251903491172e+00
4.817581626146389681e+03 1.000000000000000000e+01
5.224096948704999704e+03 1.778279410038922848e+01
5.731849996978128729e+03 3.162277660168379256e+01
6.397075042881131594e+03 5.623413251903490817e+01
7.321618875904638116e+03 1.000000000000000000e+02
8.647428672287353038e+03 1.778279410038922776e+02
1.042285641876536647e+04 3.162277660168379612e+02
