# Temperature (K), Pressure (bars)
8.207327448383221054e+02 5.623413251903491208e-06
8.737998269360660970e+02 1.000000000000000082e-05
9.268669078118949756e+02 1.778279410038922901e-05
9.717476206090245796e+02 3.162277660168379530e-05
1.017393897305589462e+03 5.623413251903490700e-05
1.069098425080111156e+03 1.000000000000000048e-04
1.127211194541069744e+03 1.778279410038922698e-04
1.181361596370366442e+03 3.162277660168379394e-04
1.227388777014196648e+03 5.623413251903490971e-04
1.312510240939627693e+03 1.000000000000000021e-03
1.473949934890437362e+03 1.778279410038922752e-03
1.671516879698874618e+03 3.162277660168379394e-03
1.838445624969248229e+03 5.623413251903490971e-03
1.958596832370017637e+03 1.000000000000000021e-02
2.081052914538529876e+03 1.778279410038922925e-02
2.244042851779144712e+03 3.162277660168379134e-02
2.420670300697024686e+03 5.623413251903491145e-02
2.590001352308521291e+03 1.000000000000000056e-01
2.760465726658464973e+03 1.778279410038922925e-01
2.935392205176170592e+03 3.162277660168379412e-01
3.116110447273410500e+03 5.623413251903490728e-01
3.303610227870128710e+03 1.000000000000000000e+00
3.500479107510703670e+03 1.778279410038922759e+00
3.710920224205927752e+03 3.162277660168379523e+00
3.939885375328875398e+03 5.623413251903491172e+00
4.192904471742195710e+03 1.000000000000000000e+01
4.476542027684967252e+03 1.778279410038922848e+01
4.799448507558878191e+03 3.162277660168379256e+01
5.176867304708726806e+03 5.623413251903490817e+01
5.620536488034712420e+03 1.000000000000000000e+02
6.151821782732281463e+03 1.778279410038922776e+02
6.801365265350243135e+03 3.162277660168379612e+02
