# Temperature (K), Pressure (bars)
1.222884654306217726e+03 9.999999999999999547e-07
1.264276439344900155e+03 1.778279410038922901e-06
1.305668224384614405e+03 3.162277660168379191e-06
1.347653515437325041e+03 5.623413251903491208e-06
1.392260700160509487e+03 1.000000000000000082e-05
1.442495093849439399e+03 1.778279410038922901e-05
1.499174316841986411e+03 3.162277660168379530e-05
1.564532176465129623e+03 5.623413251903490700e-05
1.641591363021548204e+03 1.000000000000000048e-04
1.723113073441142660e+03 1.778279410038922698e-04
1.804001558797748203e+03 3.162277660168379394e-04
1.887354514277071303e+03 5.623413251903490971e-04
1.978644365088948689e+03 1.000000000000000021e-03
2.088509097436882712e+03 1.778279410038922752e-03
2.219026325759702559e+03 3.162277660168379394e-03
2.358638791244298318e+03 5.623413251903490971e-03
2.500873538323990033e+03 1.000000000000000021e-02
2.647233780031750939e+03 1.778279410038922925e-02
2.799626498160717802e+03 3.162277660168379134e-02
2.960309166549993279e+03 5.623413251903491145e-02
3.131854490292924766e+03 1.000000000000000056e-01
3.316573731471967221e+03 1.778279410038922925e-01
3.516350863756611034e+03 3.162277660168379412e-01
3.734267509800161861e+03 5.623413251903490728e-01
3.976744268105579977e+03 1.000000000000000000e+00
4.254338831631251196e+03 1.778279410038922759e+00
4.571239293617522890e+03 3.162277660168379523e+00
4.964883850599493599e+03 5.623413251903491172e+00
5.481481647748167234e+03 1.000000000000000000e+01
6.203811495649547396e+03 1.778279410038922848e+01
7.259003692383991620e+03 3.162277660168379256e+01
8.801350706654910027e+03 5.623413251903490817e+01
1.074410669707844499e+04 1.000000000000000000e+02
1.307625133315192215e+04 1.778279410038922776e+02
1.585775922755891224e+04 3.162277660168379612e+02
