# Temperature (K), Pressure (bars)
2.230635918992489223e+03 9.999999999999999547e-07
2.244376466704360610e+03 1.778279410038922901e-06
2.258117014416231996e+03 3.162277660168379191e-06
2.286793932159173892e+03 5.623413251903491208e-06
2.325350777988631762e+03 1.000000000000000082e-05
2.367709835549718719e+03 1.778279410038922901e-05
2.414495085066142565e+03 3.162277660168379530e-05
2.464848363690462065e+03 5.623413251903490700e-05
2.516077379479959291e+03 1.000000000000000048e-04
2.566068925605295590e+03 1.778279410038922698e-04
2.613684570296991296e+03 3.162277660168379394e-04
2.657633140980974531e+03 5.623413251903490971e-04
2.697127505892133740e+03 1.000000000000000021e-03
2.733329113438872355e+03 1.778279410038922752e-03
2.770362602886477362e+03 3.162277660168379394e-03
2.812664957133598364e+03 5.623413251903490971e-03
2.866688040916828413e+03 1.000000000000000021e-02
2.932448915955239954e+03 1.778279410038922925e-02
3.020129971246654350e+03 3.162277660168379134e-02
3.150476154626645894e+03 5.623413251903491145e-02
3.313556886710107847e+03 1.000000000000000056e-01
3.499329571528086035e+03 1.778279410038922925e-01
3.705723809260205144e+03 3.162277660168379412e-01
3.948713019269189772e+03 5.623413251903490728e-01
4.234283846696082037e+03 1.000000000000000000e+00
4.580398815326239855e+03 1.778279410038922759e+00
5.041556403938332551e+03 3.162277660168379523e+00
5.711571328791323140e+03 5.623413251903491172e+00
6.743953857890151994e+03 1.000000000000000000e+01
8.258673737552890088e+03 1.778279410038922848e+01
1.000000000000000000e+04 3.162277660168379256e+01
1.000000000000000000e+04 5.623413251903490817e+01
1.000000000000000000e+04 1.000000000000000000e+02
1.000000000000000000e+04 1.778279410038922776e+02
1.000000000000000000e+04 3.162277660168379612e+02
