# Temperature (K), Pressure (bars)
1.184356117436270324e+03 9.999999999999999547e-07
1.188721011372213752e+03 1.778279410038922901e-06
1.193085905319520634e+03 3.162277660168379191e-06
1.203403574351832731e+03 5.623413251903491208e-06
1.220192762112938453e+03 1.000000000000000082e-05
1.242928082298913296e+03 1.778279410038922901e-05
1.273486884633209684e+03 3.162277660168379530e-05
1.312179734187935537e+03 5.623413251903490700e-05
1.357141426427629540e+03 1.000000000000000048e-04
1.407763360711036057e+03 1.778279410038922698e-04
1.468409997478522655e+03 3.162277660168379394e-04
1.542141905463325202e+03 5.623413251903490971e-04
1.617577406550212800e+03 1.000000000000000021e-03
1.688288479268511310e+03 1.778279410038922752e-03
1.760535295529813084e+03 3.162277660168379394e-03
1.840403798699678191e+03 5.623413251903490971e-03
1.928775426046226357e+03 1.000000000000000021e-02
2.037787868296913075e+03 1.778279410038922925e-02
2.187202396283285452e+03 3.162277660168379134e-02
2.360722085899857575e+03 5.623413251903491145e-02
2.533161868856230285e+03 1.000000000000000056e-01
2.703391201552295115e+03 1.778279410038922925e-01
2.875992748862836834e+03 3.162277660168379412e-01
3.054332628270516580e+03 5.623413251903490728e-01
3.240409859895669797e+03 1.000000000000000000e+00
3.435961499020280371e+03 1.778279410038922759e+00
3.644063287259743902e+03 3.162277660168379523e+00
3.869164082566690922e+03 5.623413251903491172e+00
4.116507089121883837e+03 1.000000000000000000e+01
4.392225801993359710e+03 1.778279410038922848e+01
4.703964799890291033e+03 3.162277660168379256e+01
5.062187346580531994e+03 5.623413251903490817e+01
5.485212322814360959e+03 1.000000000000000000e+02
5.988645382086569953e+03 1.778279410038922776e+02
6.601031052144180649e+03 3.162277660168379612e+02
