# Temperature (K), Pressure (bars)
1.052915926511728912e+03 3.162277660168379394e-03
1.100268315360849101e+03 5.623413251903490971e-03
1.147620706079719866e+03 1.000000000000000021e-02
1.195322888809438382e+03 1.778279410038922925e-02
1.243502237308811345e+03 3.162277660168379134e-02
1.292428261526086089e+03 5.623413251903491145e-02
1.344498081151875340e+03 1.000000000000000056e-01
1.405115318214248646e+03 1.778279410038922925e-01
1.480498556817514782e+03 3.162277660168379412e-01
1.576834630736795134e+03 5.623413251903490728e-01
1.700329355595042671e+03 1.000000000000000000e+00
1.849669425769770669e+03 1.778279410038922759e+00
2.029219191778082404e+03 3.162277660168379523e+00
2.269197607399264143e+03 5.623413251903491172e+00
2.567028301886910867e+03 1.000000000000000000e+01
2.871348265147310030e+03 1.778279410038922848e+01
3.165921666457735682e+03 3.162277660168379256e+01
3.463942492695722649e+03 5.623413251903490817e+01
3.773417794363042503e+03 1.000000000000000000e+02
4.099270011433869513e+03 1.778279410038922776e+02
4.456456350789881071e+03 3.162277660168379612e+02
