# Temperature (K), Pressure (bars)
1.097090367687706930e+03 1.000000000000000048e-04
1.154261448682419314e+03 1.778279410038922698e-04
1.211432535484511845e+03 3.162277660168379394e-04
1.277675632142928180e+03 5.623413251903490971e-04
1.342865753524866932e+03 1.000000000000000021e-03
1.399862883249562628e+03 1.778279410038922752e-03
1.454652214961881327e+03 3.162277660168379394e-03
1.521249420134093270e+03 5.623413251903490971e-03
1.606178724825460904e+03 1.000000000000000021e-02
1.684510196506303828e+03 1.778279410038922925e-02
1.744617215412311452e+03 3.162277660168379134e-02
1.803167378669035315e+03 5.623413251903491145e-02
1.867639628513419211e+03 1.000000000000000056e-01
1.940103406137637194e+03 1.778279410038922925e-01
2.031345468235721683e+03 3.162277660168379412e-01
2.141480623529650529e+03 5.623413251903490728e-01
2.292474220324882936e+03 1.000000000000000000e+00
2.516050830102199598e+03 1.778279410038922759e+00
2.768561797493771337e+03 3.162277660168379523e+00
3.011870939102354441e+03 5.623413251903491172e+00
3.255967694887629932e+03 1.000000000000000000e+01
3.507229021226095028e+03 1.778279410038922848e+01
3.773067857173770335e+03 3.162277660168379256e+01
4.059760072099784338e+03 5.623413251903490817e+01
4.374135602601639221e+03 1.000000000000000000e+02
4.719307657500517962e+03 1.778279410038922776e+02
5.113538372861104108e+03 3.162277660168379612e+02
