# Temperature (K), Pressure (bars)
8.577302296089106903e+02 1.778279410038922901e-05
9.030929755359720730e+02 3.162277660168379530e-05
9.484557202488401799e+02 5.623413251903490700e-05
9.926729194937471448e+02 1.000000000000000048e-04
1.040091016283856561e+03 1.778279410038922698e-04
1.090582628636005438e+03 3.162277660168379394e-04
1.138148134537848136e+03 5.623413251903490971e-04
1.176962450151521807e+03 1.000000000000000021e-03
1.208810115048942407e+03 1.778279410038922752e-03
1.239539153688129545e+03 3.162277660168379394e-03
1.272919630982370791e+03 5.623413251903490971e-03
1.311810198252677992e+03 1.000000000000000021e-02
1.358201021225868544e+03 1.778279410038922925e-02
1.402655430305834443e+03 3.162277660168379134e-02
1.457265189522689525e+03 5.623413251903491145e-02
1.595238057882184876e+03 1.000000000000000056e-01
1.836303320226763844e+03 1.778279410038922925e-01
2.105221968683335490e+03 3.162277660168379412e-01
2.359727973540765106e+03 5.623413251903490728e-01
2.600082544365442118e+03 1.000000000000000000e+00
2.827291381604995877e+03 1.778279410038922759e+00
3.047955155348351127e+03 3.162277660168379523e+00
3.269908434219480114e+03 5.623413251903491172e+00
3.500114915660154566e+03 1.000000000000000000e+01
3.744718493685329577e+03 1.778279410038922848e+01
4.012016898923561712e+03 3.162277660168379256e+01
4.306321804208551839e+03 5.623413251903490817e+01
4.634504878122555965e+03 1.000000000000000000e+02
5.000037715753440352e+03 1.778279410038922776e+02
5.423254029134280245e+03 3.162277660168379612e+02
