# Temperature (K), Pressure (bars)
1.401338926951944813e+03 3.162277660168379530e-05
1.428608635884028899e+03 5.623413251903490700e-05
1.455891965641468460e+03 1.000000000000000048e-04
1.490516296620633057e+03 1.778279410038922698e-04
1.539920007167754193e+03 3.162277660168379394e-04
1.606497325047003642e+03 5.623413251903490971e-04
1.674763542322621561e+03 1.000000000000000021e-03
1.736990434847906272e+03 1.778279410038922752e-03
1.799803778733293484e+03 3.162277660168379394e-03
1.865362661206449957e+03 5.623413251903490971e-03
1.934124425685573442e+03 1.000000000000000021e-02
2.008974476248485189e+03 1.778279410038922925e-02
2.092715852874140182e+03 3.162277660168379134e-02
2.193054626995931358e+03 5.623413251903491145e-02
2.332048504000679713e+03 1.000000000000000056e-01
2.509498744802208876e+03 1.778279410038922925e-01
2.693178424255518166e+03 3.162277660168379412e-01
2.872744752012574281e+03 5.623413251903490728e-01
3.057228482138416894e+03 1.000000000000000000e+00
3.250611485347192684e+03 1.778279410038922759e+00
3.455500000222149538e+03 3.162277660168379523e+00
3.674508473417832192e+03 5.623413251903491172e+00
3.911414765405984326e+03 1.000000000000000000e+01
4.171344850683626646e+03 1.778279410038922848e+01
4.460612431538042074e+03 3.162277660168379256e+01
4.787444741765561048e+03 5.623413251903490817e+01
5.166684467861138728e+03 1.000000000000000000e+02
5.608264813799657531e+03 1.778279410038922776e+02
6.131459941227351010e+03 3.162277660168379612e+02
