# Temperature (K), Pressure (bars)
9.935397247223945669e+02 3.162277660168379394e-04
1.049570463315257712e+03 5.623413251903490971e-04
1.105601203511519316e+03 1.000000000000000021e-03
1.158243036401038353e+03 1.778279410038922752e-03
1.210314605172892698e+03 3.162277660168379394e-03
1.266832503606721048e+03 5.623413251903490971e-03
1.334102660027235288e+03 1.000000000000000021e-02
1.408223982075832510e+03 1.778279410038922925e-02
1.488785582770515248e+03 3.162277660168379134e-02
1.583712258825218669e+03 5.623413251903491145e-02
1.679431106109381290e+03 1.000000000000000056e-01
1.767746032154785098e+03 1.778279410038922925e-01
1.872069844886120336e+03 3.162277660168379412e-01
1.996764022613909901e+03 5.623413251903490728e-01
2.172426450109574944e+03 1.000000000000000000e+00
2.435879918268245092e+03 1.778279410038922759e+00
2.715487239791229513e+03 3.162277660168379523e+00
2.966540064881905437e+03 5.623413251903491172e+00
3.213974464331007312e+03 1.000000000000000000e+01
3.466524645005434195e+03 1.778279410038922848e+01
3.732727682836540225e+03 3.162277660168379256e+01
4.018806740116187939e+03 5.623413251903490817e+01
4.331585686494278889e+03 1.000000000000000000e+02
4.674374452863941769e+03 1.778279410038922776e+02
5.064843263378784286e+03 3.162277660168379612e+02
