# Temperature (K), Pressure (bars)
1.003293030296097299e+03 1.000000000000000048e-04
1.060679673209949215e+03 1.778279410038922698e-04
1.118066317896201099e+03 3.162277660168379394e-04
1.173338949252686234e+03 5.623413251903490971e-04
1.228834608958497938e+03 1.000000000000000021e-03
1.285864488611911156e+03 1.778279410038922752e-03
1.345512979649137151e+03 3.162277660168379394e-03
1.411020113722374163e+03 5.623413251903490971e-03
1.483873928266738631e+03 1.000000000000000021e-02
1.571880894250907659e+03 1.778279410038922925e-02
1.677080932869907656e+03 3.162277660168379134e-02
1.830145017763411715e+03 5.623413251903491145e-02
2.059612414728639123e+03 1.000000000000000056e-01
2.303325489014313007e+03 1.778279410038922925e-01
2.518905228901315240e+03 3.162277660168379412e-01
2.722137261058345757e+03 5.623413251903490728e-01
2.920768189356199400e+03 1.000000000000000000e+00
3.120473860186393722e+03 1.778279410038922759e+00
3.325799118180284950e+03 3.162277660168379523e+00
3.541232797757801109e+03 5.623413251903491172e+00
3.771594431597693074e+03 1.000000000000000000e+01
4.022141204205966915e+03 1.778279410038922848e+01
4.300769025682231586e+03 3.162277660168379256e+01
4.613052384751273166e+03 5.623413251903490817e+01
4.967227976965423295e+03 1.000000000000000000e+02
5.367277207350934987e+03 1.778279410038922776e+02
5.839861449148630527e+03 3.162277660168379612e+02
