# Temperature (K), Pressure (bars)
2.265832720749396685e+03 9.999999999999999547e-07
2.281595181362642052e+03 1.778279410038922901e-06
2.297357641975887418e+03 3.162277660168379191e-06
2.324515770632753174e+03 5.623413251903491208e-06
2.358495243106706312e+03 1.000000000000000082e-05
2.396377381598662851e+03 1.778279410038922901e-05
2.439880214157721639e+03 3.162277660168379530e-05
2.488413263689547421e+03 5.623413251903490700e-05
2.540480780771005811e+03 1.000000000000000048e-04
2.594625824298330826e+03 1.778279410038922698e-04
2.649017182032608162e+03 3.162277660168379394e-04
2.701552880799896684e+03 5.623413251903490971e-04
2.750199308634184035e+03 1.000000000000000021e-03
2.793103124735859637e+03 1.778279410038922752e-03
2.830939482286896691e+03 3.162277660168379394e-03
2.867704305175840091e+03 5.623413251903490971e-03
2.910968825990465575e+03 1.000000000000000021e-02
2.965182859029569045e+03 1.778279410038922925e-02
3.039112152161562335e+03 3.162277660168379134e-02
3.151089607255913961e+03 5.623413251903491145e-02
3.301713955242243173e+03 1.000000000000000056e-01
3.482739082498146672e+03 1.778279410038922925e-01
3.683318769751249420e+03 3.162277660168379412e-01
3.918644400539498292e+03 5.623413251903490728e-01
4.201059765753325337e+03 1.000000000000000000e+00
4.533533606398681513e+03 1.778279410038922759e+00
4.968549863918193296e+03 3.162277660168379523e+00
5.586713970317909116e+03 5.623413251903491172e+00
6.528861637160480313e+03 1.000000000000000000e+01
7.949724645012744986e+03 1.778279410038922848e+01
9.734530645515311335e+03 3.162277660168379256e+01
1.000000000000000000e+04 5.623413251903490817e+01
1.000000000000000000e+04 1.000000000000000000e+02
1.000000000000000000e+04 1.778279410038922776e+02
1.000000000000000000e+04 3.162277660168379612e+02
