# Temperature (K), Pressure (bars)
7.489258302556966100e+02 3.162277660168379394e-04
7.875841694440307492e+02 5.623413251903490971e-04
8.262425096389065402e+02 1.000000000000000021e-03
8.640929730084380935e+02 1.778279410038922752e-03
9.023249092951887178e+02 3.162277660168379394e-03
9.413219224080332879e+02 5.623413251903490971e-03
9.813211787055444120e+02 1.000000000000000021e-02
1.023841502110056467e+03 1.778279410038922925e-02
1.072127165648101482e+03 3.162277660168379134e-02
1.130509846628136984e+03 5.623413251903491145e-02
1.206376550380822209e+03 1.000000000000000056e-01
1.306218018919569658e+03 1.778279410038922925e-01
1.452061575304892585e+03 3.162277660168379412e-01
1.666198428076664868e+03 5.623413251903490728e-01
1.926399028068061170e+03 1.000000000000000000e+00
2.202629610525491444e+03 1.778279410038922759e+00
2.480640077091627973e+03 3.162277660168379523e+00
2.751065056867772000e+03 5.623413251903491172e+00
3.014484736862448244e+03 1.000000000000000000e+01
3.276841098601119484e+03 1.778279410038922848e+01
3.547691443652701764e+03 3.162277660168379256e+01
3.833405041951556996e+03 5.623413251903490817e+01
4.141139054538615710e+03 1.000000000000000000e+02
4.474531985760981115e+03 1.778279410038922776e+02
4.849855705668211158e+03 3.162277660168379612e+02
