# Temperature (K), Pressure (bars)
1.063065150853218029e+03 3.162277660168379394e-04
1.101805750700031012e+03 5.623413251903490971e-04
1.140546351521225233e+03 1.000000000000000021e-03
1.175796248558290245e+03 1.778279410038922752e-03
1.206779069307054669e+03 3.162277660168379394e-03
1.233913421738135185e+03 5.623413251903490971e-03
1.260011836484215792e+03 1.000000000000000021e-02
1.287492867034460687e+03 1.778279410038922925e-02
1.320836521734915777e+03 3.162277660168379134e-02
1.371473446500726823e+03 5.623413251903491145e-02
1.437408277935370506e+03 1.000000000000000056e-01
1.517907040010501305e+03 1.778279410038922925e-01
1.616149842830451007e+03 3.162277660168379412e-01
1.730628092466627095e+03 5.623413251903490728e-01
1.859093406276144606e+03 1.000000000000000000e+00
2.040009255741937068e+03 1.778279410038922759e+00
2.314783627759079536e+03 3.162277660168379523e+00
2.615843544027614826e+03 5.623413251903491172e+00
2.893041098668123141e+03 1.000000000000000000e+01
3.165151797384888596e+03 1.778279410038922848e+01
3.441581335437436792e+03 3.162277660168379256e+01
3.729546491402889842e+03 5.623413251903490817e+01
4.036662714120660894e+03 1.000000000000000000e+02
4.367260687450329897e+03 1.778279410038922776e+02
4.736503329985671371e+03 3.162277660168379612e+02
