# Temperature (K), Pressure (bars)
9.343095989684552478e+02 9.999999999999999547e-07
9.652522027752344229e+02 1.778279410038922901e-06
9.961948065925353148e+02 3.162277660168379191e-06
1.029493299425032319e+03 5.623413251903491208e-06
1.065784253616137221e+03 1.000000000000000082e-05
1.105727330158769746e+03 1.778279410038922901e-05
1.149098889489509020e+03 3.162277660168379530e-05
1.196151278124898226e+03 5.623413251903490700e-05
1.247418121202102384e+03 1.000000000000000048e-04
1.302576809561103346e+03 1.778279410038922698e-04
1.363204693253821461e+03 3.162277660168379394e-04
1.432851739418203124e+03 5.623413251903490971e-04
1.513635435451923513e+03 1.000000000000000021e-03
1.611887333181593931e+03 1.778279410038922752e-03
1.728197687240012556e+03 3.162277660168379394e-03
1.863962799134693341e+03 5.623413251903490971e-03
2.031037500580156802e+03 1.000000000000000021e-02
2.216288715310298358e+03 1.778279410038922925e-02
2.396830271452797206e+03 3.162277660168379134e-02
2.570294397373165339e+03 5.623413251903491145e-02
2.741049636918226497e+03 1.000000000000000056e-01
2.912621345348069553e+03 1.778279410038922925e-01
3.087391431353514236e+03 3.162277660168379412e-01
3.267413520905227415e+03 5.623413251903490728e-01
3.455786642615935762e+03 1.000000000000000000e+00
3.656826197896560188e+03 1.778279410038922759e+00
3.875406031868826176e+03 3.162277660168379523e+00
4.116942390628672001e+03 5.623413251903491172e+00
4.387952330708238151e+03 1.000000000000000000e+01
4.697122074287362921e+03 1.778279410038922848e+01
5.059264764349658435e+03 3.162277660168379256e+01
5.488077575640771101e+03 5.623413251903490817e+01
6.007705349876670880e+03 1.000000000000000000e+02
6.655165271560809742e+03 1.778279410038922776e+02
7.490730266461987412e+03 3.162277660168379612e+02
