# Temperature (K), Pressure (bars)
2.246232958279849754e+03 9.999999999999999547e-07
2.258345734357401852e+03 1.778279410038922901e-06
2.270458510434953951e+03 3.162277660168379191e-06
2.291825837138063889e+03 5.623413251903491208e-06
2.317403926717945069e+03 1.000000000000000082e-05
2.344556953413958581e+03 1.778279410038922901e-05
2.374211800671283982e+03 3.162277660168379530e-05
2.405707026126027813e+03 5.623413251903490700e-05
2.438975810902049489e+03 1.000000000000000048e-04
2.474039693061366506e+03 1.778279410038922698e-04
2.509783040508659724e+03 3.162277660168379394e-04
2.544522596156306008e+03 5.623413251903490971e-04
2.577411694449552670e+03 1.000000000000000021e-03
2.609125572508879031e+03 1.778279410038922752e-03
2.641936548245962513e+03 3.162277660168379394e-03
2.678958370030086371e+03 5.623413251903490971e-03
2.720982419959917934e+03 1.000000000000000021e-02
2.766979142903948286e+03 1.778279410038922925e-02
2.815516831567749250e+03 3.162277660168379134e-02
2.893259663616425314e+03 5.623413251903491145e-02
3.025032873686315270e+03 1.000000000000000056e-01
3.182002371572969878e+03 1.778279410038922925e-01
3.348016613402410712e+03 3.162277660168379412e-01
3.535084622015250716e+03 5.623413251903490728e-01
3.746909724347288829e+03 1.000000000000000000e+00
3.985964293431751230e+03 1.778279410038922759e+00
4.256601316673471047e+03 3.162277660168379523e+00
4.568025957925417970e+03 5.623413251903491172e+00
4.927756062281448976e+03 1.000000000000000000e+01
5.370844568941234684e+03 1.778279410038922848e+01
5.942098209483614482e+03 3.162277660168379256e+01
6.724959077262546998e+03 5.623413251903490817e+01
7.855661499045807432e+03 1.000000000000000000e+02
9.456257421090409480e+03 1.778279410038922776e+02
1.000000000000000000e+04 3.162277660168379612e+02
