# Temperature (K), Pressure (bars)
1.707331111203196315e+03 3.162277660168379530e-05
1.710941706454972973e+03 5.623413251903490700e-05
1.714552302117857607e+03 1.000000000000000048e-04
1.764058236273959892e+03 1.778279410038922698e-04
1.811216742827656162e+03 3.162277660168379394e-04
1.840390151251016050e+03 5.623413251903490971e-04
1.875548204794062713e+03 1.000000000000000021e-03
1.917620024679943754e+03 1.778279410038922752e-03
1.960246469576528852e+03 3.162277660168379394e-03
2.001616847788713358e+03 5.623413251903490971e-03
2.040900570942957756e+03 1.000000000000000021e-02
2.076272855565710415e+03 1.778279410038922925e-02
2.108233237694778836e+03 3.162277660168379134e-02
2.140194266027399408e+03 5.623413251903491145e-02
2.177959750710991102e+03 1.000000000000000056e-01
2.226592333573253200e+03 1.778279410038922925e-01
2.295111649265480537e+03 3.162277660168379412e-01
2.387906563617508255e+03 5.623413251903490728e-01
2.536083663498260194e+03 1.000000000000000000e+00
2.760747764356970947e+03 1.778279410038922759e+00
3.001480669954803943e+03 3.162277660168379523e+00
3.228633270198421087e+03 5.623413251903491172e+00
3.463150830715206666e+03 1.000000000000000000e+01
3.710945067525656668e+03 1.778279410038922848e+01
3.978136388711687687e+03 3.162277660168379256e+01
4.271147127226449811e+03 5.623413251903490817e+01
4.597059528446442528e+03 1.000000000000000000e+02
4.958949791919155359e+03 1.778279410038922776e+02
5.377671561739082790e+03 3.162277660168379612e+02
