# Temperature (K), Pressure (bars)
8.140258275891601443e+02 3.162277660168379394e-04
8.650726469943886059e+02 5.623413251903490971e-04
9.161194675158152450e+02 1.000000000000000021e-03
9.651803361378732689e+02 1.778279410038922752e-03
1.014181235627299657e+03 3.162277660168379394e-03
1.065938505731842497e+03 5.623413251903490971e-03
1.124229180289918077e+03 1.000000000000000021e-02
1.192346348979770937e+03 1.778279410038922925e-02
1.278028727390170616e+03 3.162277660168379134e-02
1.385850317681122988e+03 5.623413251903491145e-02
1.543248255789615769e+03 1.000000000000000056e-01
1.774606842322162947e+03 1.778279410038922925e-01
2.036828221489017324e+03 3.162277660168379412e-01
2.294040810316345414e+03 5.623413251903490728e-01
2.541309211422380031e+03 1.000000000000000000e+00
2.774325974868042522e+03 1.778279410038922759e+00
2.999277533113292520e+03 3.162277660168379523e+00
3.223829601383953104e+03 5.623413251903491172e+00
3.455026407365549403e+03 1.000000000000000000e+01
3.699197026791146527e+03 1.778279410038922848e+01
3.964641541644107292e+03 3.162277660168379256e+01
4.255715705340891873e+03 5.623413251903490817e+01
4.579156879597035186e+03 1.000000000000000000e+02
4.938288440332809841e+03 1.778279410038922776e+02
5.352622886763952920e+03 3.162277660168379612e+02
