# Temperature (K), Pressure (bars)
2.182394949524653839e+03 9.999999999999999547e-07
2.202083991635426173e+03 1.778279410038922901e-06
2.221773033746207602e+03 3.162277660168379191e-06
2.246234988810577306e+03 5.623413251903491208e-06
2.272055671444672498e+03 1.000000000000000082e-05
2.298942178772052557e+03 1.778279410038922901e-05
2.327244555632647916e+03 3.162277660168379530e-05
2.354555013590744693e+03 5.623413251903490700e-05
2.379112947460941541e+03 1.000000000000000048e-04
2.400534300029272799e+03 1.778279410038922698e-04
2.420828292592001617e+03 3.162277660168379394e-04
2.443541799578705650e+03 5.623413251903490971e-04
2.471805698483740343e+03 1.000000000000000021e-03
2.507831795121914183e+03 1.778279410038922752e-03
2.553188843868938420e+03 3.162277660168379394e-03
2.609505572623912940e+03 5.623413251903490971e-03
2.676145729434629629e+03 1.000000000000000021e-02
2.753584007260428734e+03 1.778279410038922925e-02
2.851898567724183522e+03 3.162277660168379134e-02
2.976781568379026794e+03 5.623413251903491145e-02
3.121934650193561538e+03 1.000000000000000056e-01
3.285713130290000663e+03 1.778279410038922925e-01
3.472071760618292501e+03 3.162277660168379412e-01
3.683495650452992777e+03 5.623413251903490728e-01
3.922553296629724628e+03 1.000000000000000000e+00
4.195297775834735148e+03 1.778279410038922759e+00
4.514627007982126997e+03 3.162277660168379523e+00
4.887455092776981473e+03 5.623413251903491172e+00
5.366388188977235586e+03 1.000000000000000000e+01
6.027369808071523039e+03 1.778279410038922848e+01
7.013808447155653994e+03 3.162277660168379256e+01
8.468828453632937453e+03 5.623413251903490817e+01
1.034028166088323269e+04 1.000000000000000000e+02
1.258910595105749053e+04 1.778279410038922776e+02
1.527235184622336237e+04 3.162277660168379612e+02
