# Temperature (K), Pressure (bars)
8.435134055754725750e+02 5.623413251903490971e-04
8.797388138022704425e+02 1.000000000000000021e-03
9.159642231386674212e+02 1.778279410038922752e-03
9.520783985933516078e+02 3.162277660168379394e-03
9.896347121998388729e+02 5.623413251903490971e-03
1.028774163755039353e+03 1.000000000000000021e-02
1.068753639140824134e+03 1.778279410038922925e-02
1.111386472329608296e+03 3.162277660168379134e-02
1.158782451138956731e+03 5.623413251903491145e-02
1.216704312444543802e+03 1.000000000000000056e-01
1.285719668667378073e+03 1.778279410038922925e-01
1.387179165491978893e+03 3.162277660168379412e-01
1.562674883274217336e+03 5.623413251903490728e-01
1.807766972396525489e+03 1.000000000000000000e+00
2.088640839658634832e+03 1.778279410038922759e+00
2.376190005714472136e+03 3.162277660168379523e+00
2.655598872482971728e+03 5.623413251903491172e+00
2.927678484977856442e+03 1.000000000000000000e+01
3.196417011994627501e+03 1.778279410038922848e+01
3.471204798233487054e+03 3.162277660168379256e+01
3.758445861392905954e+03 5.623413251903490817e+01
4.065557716417043594e+03 1.000000000000000000e+02
4.396319037673017192e+03 1.778279410038922776e+02
4.766709819719055304e+03 3.162277660168379612e+02
