# Temperature (K), Pressure (bars)
1.118188681895965601e+03 9.999999999999999547e-07
1.160981775290028963e+03 1.778279410038922901e-06
1.203774868684828789e+03 3.162277660168379191e-06
1.248297690389394120e+03 5.623413251903491208e-06
1.295139774079113295e+03 1.000000000000000082e-05
1.345393965768351336e+03 1.778279410038922901e-05
1.403221224901541063e+03 3.162277660168379530e-05
1.468765584982000746e+03 5.623413251903490700e-05
1.541956896787108235e+03 1.000000000000000048e-04
1.627351565343391030e+03 1.778279410038922698e-04
1.719649278231638618e+03 3.162277660168379394e-04
1.813582544969003948e+03 5.623413251903490971e-04
1.913430614862590573e+03 1.000000000000000021e-03
2.030617361834374151e+03 1.778279410038922752e-03
2.171102781328750098e+03 3.162277660168379394e-03
2.322302993758308730e+03 5.623413251903490971e-03
2.474899043923970567e+03 1.000000000000000021e-02
2.630469433433718223e+03 1.778279410038922925e-02
2.791154917599024884e+03 3.162277660168379134e-02
2.959135439226796734e+03 5.623413251903491145e-02
3.136379430087522451e+03 1.000000000000000056e-01
3.324277395486637943e+03 1.778279410038922925e-01
3.524705037253744194e+03 3.162277660168379412e-01
3.741997672457097906e+03 5.623413251903490728e-01
3.983768148593493152e+03 1.000000000000000000e+00
4.261088120263638302e+03 1.778279410038922759e+00
4.580337102645871710e+03 3.162277660168379523e+00
4.977809002704706472e+03 5.623413251903491172e+00
5.502118623755774024e+03 1.000000000000000000e+01
6.243192902401714491e+03 1.778279410038922848e+01
7.354345915461974073e+03 3.162277660168379256e+01
8.952252553177297159e+03 5.623413251903490817e+01
1.092944348434106178e+04 1.000000000000000000e+02
1.330497113913272551e+04 1.778279410038922776e+02
1.613895226067522162e+04 3.162277660168379612e+02
