# Temperature (K), Pressure (bars)
1.378096133096713174e+03 9.999999999999999547e-07
1.435553321838230659e+03 1.778279410038922901e-06
1.493010510579748143e+03 3.162277660168379191e-06
1.548926447009037702e+03 5.623413251903491208e-06
1.601357072543386494e+03 1.000000000000000082e-05
1.654316286569160638e+03 1.778279410038922901e-05
1.710931919500289723e+03 3.162277660168379530e-05
1.770490658832133022e+03 5.623413251903490700e-05
1.834488159583798279e+03 1.000000000000000048e-04
1.902615986343504574e+03 1.778279410038922698e-04
1.974806265981477736e+03 3.162277660168379394e-04
2.053597105433750130e+03 5.623413251903490971e-04
2.144261201390240785e+03 1.000000000000000021e-03
2.251557416841510076e+03 1.778279410038922752e-03
2.370815828066957692e+03 3.162277660168379394e-03
2.496579645809308204e+03 5.623413251903490971e-03
2.629318212334247619e+03 1.000000000000000021e-02
2.770975935414502601e+03 1.778279410038922925e-02
2.924065865091526121e+03 3.162277660168379134e-02
3.091626420688038252e+03 5.623413251903491145e-02
3.277059809944966673e+03 1.000000000000000056e-01
3.486442525493331686e+03 1.778279410038922925e-01
3.694536195131977365e+03 3.162277660168379412e-01
3.933390940350038363e+03 5.623413251903490728e-01
4.215131193032476403e+03 1.000000000000000000e+00
4.552261605325478740e+03 1.778279410038922759e+00
4.998422977375023947e+03 3.162277660168379523e+00
5.646767466972964939e+03 5.623413251903491172e+00
6.661162226418116916e+03 1.000000000000000000e+01
8.155052704362195072e+03 1.778279410038922848e+01
9.964746328370598349e+03 3.162277660168379256e+01
1.000000000000000000e+04 5.623413251903490817e+01
1.000000000000000000e+04 1.000000000000000000e+02
1.000000000000000000e+04 1.778279410038922776e+02
1.000000000000000000e+04 3.162277660168379612e+02
