# Temperature (K), Pressure (bars)
2.413761834720020488e+03 9.999999999999999547e-07
2.416823980452592423e+03 1.778279410038922901e-06
2.419886126185164358e+03 3.162277660168379191e-06
2.430388648815750003e+03 5.623413251903491208e-06
2.460958466281056189e+03 1.000000000000000082e-05
2.493524072944265754e+03 1.778279410038922901e-05
2.524984139522088299e+03 3.162277660168379530e-05
2.558767552082886596e+03 5.623413251903490700e-05
2.592742249801035996e+03 1.000000000000000048e-04
2.630350835482646744e+03 1.778279410038922698e-04
2.671158236245855733e+03 3.162277660168379394e-04
2.714266979735357381e+03 5.623413251903490971e-04
2.758481941722208830e+03 1.000000000000000021e-03
2.804725053766871497e+03 1.778279410038922752e-03
2.857340772235445911e+03 3.162277660168379394e-03
2.922343126317490260e+03 5.623413251903490971e-03
2.992839788517196212e+03 1.000000000000000021e-02
3.053779538919599872e+03 1.778279410038922925e-02
3.083635708329536101e+03 3.162277660168379134e-02
3.125519075440586676e+03 5.623413251903491145e-02
3.256525139877690890e+03 1.000000000000000056e-01
3.441067539523750838e+03 1.778279410038922925e-01
3.632338805972807677e+03 3.162277660168379412e-01
3.854387739863126171e+03 5.623413251903490728e-01
4.116469563236305476e+03 1.000000000000000000e+00
4.417257675929257857e+03 1.778279410038922759e+00
4.794606779840024501e+03 3.162277660168379523e+00
5.302505205438288613e+03 5.623413251903491172e+00
6.056624268640893206e+03 1.000000000000000000e+01
7.232971820639517318e+03 1.778279410038922848e+01
8.866181212590150608e+03 3.162277660168379256e+01
1.000000000000000000e+04 5.623413251903490817e+01
1.000000000000000000e+04 1.000000000000000000e+02
1.000000000000000000e+04 1.778279410038922776e+02
1.000000000000000000e+04 3.162277660168379612e+02
