# Temperature (K), Pressure (bars)
9.632896876153213270e+02 3.162277660168379530e-05
1.013436320348681647e+03 5.623413251903490700e-05
1.063582954108836475e+03 1.000000000000000048e-04
1.110285387932391131e+03 1.778279410038922698e-04
1.154171107914700997e+03 3.162277660168379394e-04
1.198507349963071647e+03 5.623413251903490971e-04
1.246154254949866981e+03 1.000000000000000021e-03
1.299007866091708365e+03 1.778279410038922752e-03
1.359906545922705618e+03 3.162277660168379394e-03
1.433936336682168758e+03 5.623413251903490971e-03
1.530270983525374049e+03 1.000000000000000021e-02
1.643219761154947719e+03 1.778279410038922925e-02
1.767093721473602727e+03 3.162277660168379134e-02
1.905672663287220530e+03 5.623413251903491145e-02
2.075117780838268573e+03 1.000000000000000056e-01
2.290778024810062107e+03 1.778279410038922925e-01
2.511885414901500098e+03 3.162277660168379412e-01
2.713248170762673453e+03 5.623413251903490728e-01
2.911077367477008920e+03 1.000000000000000000e+00
3.111281846488647261e+03 1.778279410038922759e+00
3.317677072030411637e+03 3.162277660168379523e+00
3.534175772407445038e+03 5.623413251903491172e+00
3.765444751929542235e+03 1.000000000000000000e+01
4.016819947254601175e+03 1.778279410038922848e+01
4.296191884881091937e+03 3.162277660168379256e+01
4.609353001225731532e+03 5.623413251903490817e+01
4.964662951374467411e+03 1.000000000000000000e+02
5.366091682850068537e+03 1.778279410038922776e+02
5.840295510400025705e+03 3.162277660168379612e+02
