# Temperature (K), Pressure (bars)
2.277668973369829018e+03 9.999999999999999547e-07
2.296539690403458735e+03 1.778279410038922901e-06
2.315410407437087997e+03 3.162277660168379191e-06
2.333656985344443001e+03 5.623413251903491208e-06
2.352172994627267599e+03 1.000000000000000082e-05
2.369939782430801188e+03 1.778279410038922901e-05
2.383693499332113788e+03 3.162277660168379530e-05
2.390190165305501523e+03 5.623413251903490700e-05
2.391315647302587877e+03 1.000000000000000048e-04
2.395604683373866919e+03 1.778279410038922698e-04
2.410474319659389039e+03 3.162277660168379394e-04
2.437382884075992479e+03 5.623413251903490971e-04
2.474872918167889111e+03 1.000000000000000021e-03
2.521781707414455468e+03 1.778279410038922752e-03
2.579056750059469778e+03 3.162277660168379394e-03
2.648474220378306200e+03 5.623413251903490971e-03
2.736473026439341083e+03 1.000000000000000021e-02
2.848060639286567039e+03 1.778279410038922925e-02
2.976177601281913667e+03 3.162277660168379134e-02
3.117329940278629692e+03 5.623413251903491145e-02
3.276194245544758815e+03 1.000000000000000056e-01
3.459110995920110327e+03 1.778279410038922925e-01
3.656424054888050705e+03 3.162277660168379412e-01
3.885018592650669234e+03 5.623413251903490728e-01
4.154243162576892246e+03 1.000000000000000000e+00
4.467764789050739637e+03 1.778279410038922759e+00
4.868302962514550018e+03 3.162277660168379523e+00
5.421667461601822652e+03 5.623413251903491172e+00
6.257024946634490334e+03 1.000000000000000000e+01
7.547859746368947526e+03 1.778279410038922848e+01
9.263558299598700614e+03 3.162277660168379256e+01
1.000000000000000000e+04 5.623413251903490817e+01
1.000000000000000000e+04 1.000000000000000000e+02
1.000000000000000000e+04 1.778279410038922776e+02
1.000000000000000000e+04 3.162277660168379612e+02
