# Temperature (K), Pressure (bars)
9.955516123041277297e+02 3.162277660168379394e-04
1.044341715813653764e+03 5.623413251903490971e-04
1.093131821766114172e+03 1.000000000000000021e-03
1.142279392256970368e+03 1.778279410038922752e-03
1.192673507617093492e+03 3.162277660168379394e-03
1.244794803260966773e+03 5.623413251903490971e-03
1.298411338794309358e+03 1.000000000000000021e-02
1.354469020662218327e+03 1.778279410038922925e-02
1.416368951018612734e+03 3.162277660168379134e-02
1.490479956817506945e+03 5.623413251903491145e-02
1.585292171981512865e+03 1.000000000000000056e-01
1.713126477953141375e+03 1.778279410038922925e-01
1.869848623005000491e+03 3.162277660168379412e-01
2.061870579575966531e+03 5.623413251903490728e-01
2.305997402803945533e+03 1.000000000000000000e+00
2.565431347204442773e+03 1.778279410038922759e+00
2.810611064877337412e+03 3.162277660168379523e+00
3.050561664190498959e+03 5.623413251903491172e+00
3.291977264568211922e+03 1.000000000000000000e+01
3.541333754837890865e+03 1.778279410038922848e+01
3.806694070897641268e+03 3.162277660168379256e+01
4.093892840369013356e+03 5.623413251903490817e+01
4.409646196820495788e+03 1.000000000000000000e+02
4.757158560712001417e+03 1.778279410038922776e+02
5.154829739804677956e+03 3.162277660168379612e+02
