# Temperature (K), Pressure (bars)
2.309647043044778911e+03 3.162277660168379191e-06
2.316599424833122157e+03 5.623413251903491208e-06
2.323551817919174937e+03 1.000000000000000082e-05
2.344471902509801112e+03 1.778279410038922901e-05
2.374023325926469170e+03 3.162277660168379530e-05
2.407972534327700032e+03 5.623413251903490700e-05
2.448139612392281833e+03 1.000000000000000048e-04
2.495341493333738526e+03 1.778279410038922698e-04
2.549986643126659601e+03 3.162277660168379394e-04
2.612969380821926279e+03 5.623413251903490971e-04
2.684110164961757619e+03 1.000000000000000021e-03
2.761931854839122934e+03 1.778279410038922752e-03
2.844265800938746452e+03 3.162277660168379394e-03
2.926076467965860502e+03 5.623413251903490971e-03
3.001667778209126027e+03 1.000000000000000021e-02
3.066105995042517407e+03 1.778279410038922925e-02
3.124597223234511148e+03 3.162277660168379134e-02
3.180837941656319344e+03 5.623413251903491145e-02
3.252096127398822773e+03 1.000000000000000056e-01
3.376935969290545472e+03 1.778279410038922925e-01
3.552369905538302191e+03 3.162277660168379412e-01
3.760008390833388603e+03 5.623413251903490728e-01
4.006774887144475542e+03 1.000000000000000000e+00
4.306175406401572218e+03 1.778279410038922759e+00
4.640590406020764931e+03 3.162277660168379523e+00
5.065338426552464625e+03 5.623413251903491172e+00
5.645120630051804255e+03 1.000000000000000000e+01
6.511405622665914962e+03 1.778279410038922848e+01
7.828144821529495857e+03 3.162277660168379256e+01
9.582065756003581555e+03 5.623413251903490817e+01
1.000000000000000000e+04 1.000000000000000000e+02
1.000000000000000000e+04 1.778279410038922776e+02
1.000000000000000000e+04 3.162277660168379612e+02
