# Temperature (K), Pressure (bars)
9.342177758794765623e+02 3.162277660168379530e-05
9.880781189062333851e+02 5.623413251903490700e-05
1.041938461601323752e+03 1.000000000000000048e-04
1.091578963088624278e+03 1.778279410038922698e-04
1.140458633501117674e+03 3.162277660168379394e-04
1.181804961668844271e+03 5.623413251903490971e-04
1.213547797002316884e+03 1.000000000000000021e-03
1.244171770993951441e+03 1.778279410038922752e-03
1.279315979256730543e+03 3.162277660168379394e-03
1.340886581396274323e+03 5.623413251903490971e-03
1.455950687162444183e+03 1.000000000000000021e-02
1.603266126396950085e+03 1.778279410038922925e-02
1.745897012998560285e+03 3.162277660168379134e-02
1.879117256183980999e+03 5.623413251903491145e-02
2.023517590995233149e+03 1.000000000000000056e-01
2.209159898228419479e+03 1.778279410038922925e-01
2.425145352725032808e+03 3.162277660168379412e-01
2.638336584032178052e+03 5.623413251903490728e-01
2.844184377571111327e+03 1.000000000000000000e+00
3.049299521722282407e+03 1.778279410038922759e+00
3.257841887883145318e+03 3.162277660168379523e+00
3.474503262522393925e+03 5.623413251903491172e+00
3.704551072690642741e+03 1.000000000000000000e+01
3.953462828183744023e+03 1.778279410038922848e+01
4.229193042070027332e+03 3.162277660168379256e+01
4.537059023407023233e+03 5.623413251903490817e+01
4.884983167194781345e+03 1.000000000000000000e+02
5.276967082902026959e+03 1.778279410038922776e+02
5.737562894758132643e+03 3.162277660168379612e+02
