# Temperature (K), Pressure (bars)
9.452473645232693116e+02 9.999999999999999547e-07
9.689968773918433271e+02 1.778279410038922901e-06
9.927463903025044374e+02 3.162277660168379191e-06
1.020997566065651995e+03 5.623413251903491208e-06
1.054324610392707427e+03 1.000000000000000082e-05
1.092786025769159551e+03 1.778279410038922901e-05
1.135807571857307948e+03 3.162277660168379530e-05
1.182658409247964755e+03 5.623413251903490700e-05
1.233456152338227639e+03 1.000000000000000048e-04
1.287624114268039420e+03 1.778279410038922698e-04
1.345872261522444205e+03 3.162277660168379394e-04
1.411229814394657296e+03 5.623413251903490971e-04
1.485551094334718300e+03 1.000000000000000021e-03
1.573954557703418686e+03 1.778279410038922752e-03
1.683221896827417822e+03 3.162277660168379394e-03
1.808413324278094933e+03 5.623413251903490971e-03
1.959199933830440841e+03 1.000000000000000021e-02
2.144804665953619860e+03 1.778279410038922925e-02
2.335396571887145456e+03 3.162277660168379134e-02
2.513224757764986862e+03 5.623413251903491145e-02
2.685845816020828352e+03 1.000000000000000056e-01
2.857723185033530171e+03 1.778279410038922925e-01
3.031989672197858454e+03 3.162277660168379412e-01
3.211002833396837559e+03 5.623413251903490728e-01
3.397525245435198485e+03 1.000000000000000000e+00
3.595494135163582541e+03 1.778279410038922759e+00
3.809566161207608275e+03 3.162277660168379523e+00
4.044850006059980842e+03 5.623413251903491172e+00
4.307313011761727466e+03 1.000000000000000000e+01
4.604446729577532096e+03 1.778279410038922848e+01
4.946611069984783171e+03 3.162277660168379256e+01
5.351486612210959720e+03 5.623413251903490817e+01
5.835800797621450329e+03 1.000000000000000000e+02
6.429591662251796151e+03 1.778279410038922776e+02
7.179840344557256685e+03 3.162277660168379612e+02
