# Temperature (K), Pressure (bars)
2.382690283902108149e+03 1.778279410038922901e-06
2.387463303156286202e+03 3.162277660168379191e-06
2.392236340187429960e+03 5.623413251903491208e-06
2.419074164531686620e+03 1.000000000000000082e-05
2.452536869564483823e+03 1.778279410038922901e-05
2.485666950838142839e+03 3.162277660168379530e-05
2.523093355496628192e+03 5.623413251903490700e-05
2.564714434965763758e+03 1.000000000000000048e-04
2.611696629357982147e+03 1.778279410038922698e-04
2.664549309698969410e+03 3.162277660168379394e-04
2.723732042879010351e+03 5.623413251903490971e-04
2.791102015870916603e+03 1.000000000000000021e-03
2.867390330085107507e+03 1.778279410038922752e-03
2.951760768249780540e+03 3.162277660168379394e-03
3.040590292718533419e+03 5.623413251903490971e-03
3.123778368806061735e+03 1.000000000000000021e-02
3.191010290077877016e+03 1.778279410038922925e-02
3.229505020380555834e+03 3.162277660168379134e-02
3.247118828634985221e+03 5.623413251903491145e-02
3.318791173917677952e+03 1.000000000000000056e-01
3.487969222058086871e+03 1.778279410038922925e-01
3.707995375841655914e+03 3.162277660168379412e-01
3.971848709339897141e+03 5.623413251903490728e-01
4.255294709766028063e+03 1.000000000000000000e+00
4.611745398637431208e+03 1.778279410038922759e+00
5.097254730636165732e+03 3.162277660168379523e+00
5.835555203356452694e+03 5.623413251903491172e+00
7.004963330539600065e+03 1.000000000000000000e+01
8.612679945977941316e+03 1.778279410038922848e+01
1.000000000000000000e+04 3.162277660168379256e+01
1.000000000000000000e+04 5.623413251903490817e+01
1.000000000000000000e+04 1.000000000000000000e+02
1.000000000000000000e+04 1.778279410038922776e+02
1.000000000000000000e+04 3.162277660168379612e+02
