# Temperature (K), Pressure (bars)
2.352476172048684020e+03 9.999999999999999547e-07
2.354446607680787565e+03 1.778279410038922901e-06
2.356417043313123941e+03 3.162277660168379191e-06
2.371002872338361612e+03 5.623413251903491208e-06
2.394754656500194869e+03 1.000000000000000082e-05
2.422069648233141834e+03 1.778279410038922901e-05
2.451627261722504954e+03 3.162277660168379530e-05
2.482567744268208116e+03 5.623413251903490700e-05
2.514258300261679778e+03 1.000000000000000048e-04
2.546161785081214475e+03 1.778279410038922698e-04
2.577839118878792306e+03 3.162277660168379394e-04
2.608615225856620782e+03 5.623413251903490971e-04
2.636954934390195376e+03 1.000000000000000021e-03
2.661260885483430684e+03 1.778279410038922752e-03
2.682044885791809975e+03 3.162277660168379394e-03
2.701844485297192477e+03 5.623413251903490971e-03
2.724738697002090248e+03 1.000000000000000021e-02
2.752848514863520904e+03 1.778279410038922925e-02
2.792483374607306359e+03 3.162277660168379134e-02
2.842106535166413778e+03 5.623413251903491145e-02
2.920142358481552947e+03 1.000000000000000056e-01
3.056383928588561957e+03 1.778279410038922925e-01
3.221136772858883432e+03 3.162277660168379412e-01
3.392280587572262903e+03 5.623413251903490728e-01
3.582758851150396822e+03 1.000000000000000000e+00
3.796245465165767200e+03 1.778279410038922759e+00
4.035405096152311671e+03 3.162277660168379523e+00
4.304284880084758697e+03 5.623413251903491172e+00
4.610375807401081147e+03 1.000000000000000000e+01
4.963346014876309710e+03 1.778279410038922848e+01
5.385955176157945971e+03 3.162277660168379256e+01
5.906954126671857011e+03 5.623413251903490817e+01
6.574373558834085998e+03 1.000000000000000000e+02
7.470951156315363733e+03 1.778279410038922776e+02
8.720690803617417259e+03 3.162277660168379612e+02
