# Temperature (K), Pressure (bars)
1.894240643687397323e+03 9.999999999999999547e-07
1.910965370369114908e+03 1.778279410038922901e-06
1.927690097050832719e+03 3.162277660168379191e-06
1.948470009622852558e+03 5.623413251903491208e-06
1.974207715161462829e+03 1.000000000000000082e-05
2.005511229567043983e+03 1.778279410038922901e-05
2.041679246627036491e+03 3.162277660168379530e-05
2.080953736333224697e+03 5.623413251903490700e-05
2.123351758190769942e+03 1.000000000000000048e-04
2.169869482745519690e+03 1.778279410038922698e-04
2.221409321936778724e+03 3.162277660168379394e-04
2.279305034725539826e+03 5.623413251903490971e-04
2.345393441996045567e+03 1.000000000000000021e-03
2.420007121343536255e+03 1.778279410038922752e-03
2.504103770541399626e+03 3.162277660168379394e-03
2.600656559865139570e+03 5.623413251903490971e-03
2.709721558759731124e+03 1.000000000000000021e-02
2.830945072807538509e+03 1.778279410038922925e-02
2.966563300676806648e+03 3.162277660168379134e-02
3.119715063162883325e+03 5.623413251903491145e-02
3.295494578462484697e+03 1.000000000000000056e-01
3.492533998282362063e+03 1.778279410038922925e-01
3.702563269875540300e+03 3.162277660168379412e-01
3.945631256060832584e+03 5.623413251903490728e-01
4.230290691611511647e+03 1.000000000000000000e+00
4.573419322919901788e+03 1.778279410038922759e+00
5.031985594795254656e+03 3.162277660168379523e+00
5.711220878878471922e+03 5.623413251903491172e+00
6.793604888198748995e+03 1.000000000000000000e+01
8.339134712448529172e+03 1.778279410038922848e+01
1.000000000000000000e+04 3.162277660168379256e+01
1.000000000000000000e+04 5.623413251903490817e+01
1.000000000000000000e+04 1.000000000000000000e+02
1.000000000000000000e+04 1.778279410038922776e+02
1.000000000000000000e+04 3.162277660168379612e+02
