# Temperature (K), Pressure (bars)
7.724425925037248817e+02 9.999999999999999547e-07
8.241744188683389893e+02 1.778279410038922901e-06
8.759062452329545749e+02 3.162277660168379191e-06
9.311605410481402032e+02 5.623413251903491208e-06
9.894675356613811346e+02 1.000000000000000082e-05
1.051652013560200430e+03 1.778279410038922901e-05
1.121628086632879331e+03 3.162277660168379530e-05
1.219855556875263574e+03 5.623413251903490700e-05
1.378795824214919094e+03 1.000000000000000048e-04
1.564637240344876318e+03 1.778279410038922698e-04
1.698407336430287614e+03 3.162277660168379394e-04
1.774047009565705594e+03 5.623413251903490971e-04
1.835945498354996289e+03 1.000000000000000021e-03
1.900375484598240519e+03 1.778279410038922752e-03
1.969364101928473701e+03 3.162277660168379394e-03
2.046431911733021025e+03 5.623413251903490971e-03
2.143729830377740655e+03 1.000000000000000021e-02
2.275668125251197125e+03 1.778279410038922925e-02
2.426430552127523242e+03 3.162277660168379134e-02
2.579574004809204780e+03 5.623413251903491145e-02
2.737368758956801685e+03 1.000000000000000056e-01
2.902419153478100270e+03 1.778279410038922925e-01
3.076101748931239399e+03 3.162277660168379412e-01
3.258444198489476548e+03 5.623413251903490728e-01
3.450153291956807607e+03 1.000000000000000000e+00
3.654156134747379838e+03 1.778279410038922759e+00
3.875110441378905762e+03 3.162277660168379523e+00
4.118635764012082291e+03 5.623413251903491172e+00
4.391429316021367413e+03 1.000000000000000000e+01
4.702237300204949861e+03 1.778279410038922848e+01
5.065411210930891684e+03 3.162277660168379256e+01
5.495003901066439539e+03 5.623413251903490817e+01
6.013927777054857870e+03 1.000000000000000000e+02
6.656770884514424324e+03 1.778279410038922776e+02
7.477984678508678371e+03 3.162277660168379612e+02
