# Temperature (K), Pressure (bars)
7.940315357464781982e+02 3.162277660168379394e-04
8.332755928114920607e+02 5.623413251903490971e-04
8.725196506396505356e+02 1.000000000000000021e-03
9.117214569081392028e+02 1.778279410038922752e-03
9.512132954053513458e+02 3.162277660168379394e-03
9.916837257886119232e+02 5.623413251903490971e-03
1.033318080650639104e+03 1.000000000000000021e-02
1.077215719352158430e+03 1.778279410038922925e-02
1.126451820356537155e+03 3.162277660168379134e-02
1.185534014200946785e+03 5.623413251903491145e-02
1.260546429038177848e+03 1.000000000000000056e-01
1.364754692146080515e+03 1.778279410038922925e-01
1.532912431065800092e+03 3.162277660168379412e-01
1.775152486379393395e+03 5.623413251903490728e-01
2.048410385406337355e+03 1.000000000000000000e+00
2.323152305731089200e+03 1.778279410038922759e+00
2.592952732604810535e+03 3.162277660168379523e+00
2.853212653309216421e+03 5.623413251903491172e+00
3.107847552187360634e+03 1.000000000000000000e+01
3.364272233148386022e+03 1.778279410038922848e+01
3.632256416858053399e+03 3.162277660168379256e+01
3.917532019709203269e+03 5.623413251903490817e+01
4.227074480739262981e+03 1.000000000000000000e+02
4.564453654701770574e+03 1.778279410038922776e+02
4.946224208177978653e+03 3.162277660168379612e+02
