# Temperature (K), Pressure (bars)
2.196719433311868215e+03 9.999999999999999547e-07
2.208026619316121923e+03 1.778279410038922901e-06
2.219333805320375632e+03 3.162277660168379191e-06
2.242883229037633555e+03 5.623413251903491208e-06
2.270866520554114686e+03 1.000000000000000082e-05
2.301216007363167137e+03 1.778279410038922901e-05
2.336293989508370942e+03 3.162277660168379530e-05
2.376040572299970336e+03 5.623413251903490700e-05
2.421632691052859172e+03 1.000000000000000048e-04
2.473719077548106270e+03 1.778279410038922698e-04
2.530857346434094779e+03 3.162277660168379394e-04
2.590970133091263506e+03 5.623413251903490971e-04
2.652564409466971938e+03 1.000000000000000021e-03
2.713386116844659682e+03 1.778279410038922752e-03
2.770090941414704957e+03 3.162277660168379394e-03
2.820460103624657677e+03 5.623413251903490971e-03
2.865090748792616523e+03 1.000000000000000021e-02
2.912279114572476374e+03 1.778279410038922925e-02
2.964387527793539903e+03 3.162277660168379134e-02
3.031275816080269124e+03 5.623413251903491145e-02
3.141511804228794063e+03 1.000000000000000056e-01
3.292510062710836792e+03 1.778279410038922925e-01
3.467932145763686094e+03 3.162277660168379412e-01
3.670189898180242380e+03 5.623413251903490728e-01
3.903954716024652953e+03 1.000000000000000000e+00
4.174456843039361956e+03 1.778279410038922759e+00
4.492099656594075896e+03 3.162277660168379523e+00
4.856831278701659357e+03 5.623413251903491172e+00
5.321337206684534976e+03 1.000000000000000000e+01
5.953809884586255066e+03 1.778279410038922848e+01
6.886823876934839973e+03 3.162277660168379256e+01
8.274619646091074173e+03 5.623413251903490817e+01
1.000000000000000000e+04 1.000000000000000000e+02
1.000000000000000000e+04 1.778279410038922776e+02
1.000000000000000000e+04 3.162277660168379612e+02
