# Temperature (K), Pressure (bars)
1.585755952937439133e+03 1.778279410038922901e-06
1.615773801369779449e+03 3.162277660168379191e-06
1.645796546829329145e+03 5.623413251903491208e-06
1.686013537178934257e+03 1.000000000000000082e-05
1.743292084407080893e+03 1.778279410038922901e-05
1.808586942279141113e+03 3.162277660168379530e-05
1.871708369276520898e+03 5.623413251903490700e-05
1.930701578140045058e+03 1.000000000000000048e-04
1.982425890884593628e+03 1.778279410038922698e-04
2.026596731536514881e+03 3.162277660168379394e-04
2.065271652808951330e+03 5.623413251903490971e-04
2.100098336275055317e+03 1.000000000000000021e-03
2.133858728293883814e+03 1.778279410038922752e-03
2.168796509120507380e+03 3.162277660168379394e-03
2.206901636362138106e+03 5.623413251903490971e-03
2.250640246545290665e+03 1.000000000000000021e-02
2.303342827649913943e+03 1.778279410038922925e-02
2.368325916081685591e+03 3.162277660168379134e-02
2.451148536166015219e+03 5.623413251903491145e-02
2.567000956586573011e+03 1.000000000000000056e-01
2.717679462837973915e+03 1.778279410038922925e-01
2.881752725519855176e+03 3.162277660168379412e-01
3.051755182052660984e+03 5.623413251903490728e-01
3.233586324696398606e+03 1.000000000000000000e+00
3.428914824068373036e+03 1.778279410038922759e+00
3.639053613769637195e+03 3.162277660168379523e+00
3.866560689531506796e+03 5.623413251903491172e+00
4.115886161286365677e+03 1.000000000000000000e+01
4.393124160434917940e+03 1.778279410038922848e+01
4.705978635013839266e+03 3.162277660168379256e+01
5.064723311124553220e+03 5.623413251903490817e+01
5.487141014160430132e+03 1.000000000000000000e+02
5.987860321755494624e+03 1.778279410038922776e+02
6.593124896058980994e+03 3.162277660168379612e+02
