# Temperature (K), Pressure (bars)
1.026520532207979613e+03 5.623413251903490971e-04
1.074489876668209263e+03 1.000000000000000021e-03
1.122459222924039750e+03 1.778279410038922752e-03
1.168850115321148678e+03 3.162277660168379394e-03
1.216214485728699856e+03 5.623413251903490971e-03
1.265615948132944368e+03 1.000000000000000021e-02
1.317295581165967633e+03 1.778279410038922925e-02
1.373637402174274030e+03 3.162277660168379134e-02
1.439420018981446447e+03 5.623413251903491145e-02
1.519825020662467523e+03 1.000000000000000056e-01
1.621444765954823424e+03 1.778279410038922925e-01
1.750023057987512630e+03 3.162277660168379412e-01
1.899269156564914738e+03 5.623413251903490728e-01
2.074066463028036651e+03 1.000000000000000000e+00
2.302265692233060236e+03 1.778279410038922759e+00
2.572819042419665038e+03 3.162277660168379523e+00
2.841217014938490593e+03 5.623413251903491172e+00
3.098147168707250330e+03 1.000000000000000000e+01
3.356375432325872225e+03 1.778279410038922848e+01
3.624878526664855144e+03 3.162277660168379256e+01
3.910261350374700669e+03 5.623413251903490817e+01
4.219619998762227624e+03 1.000000000000000000e+02
4.556381651837600657e+03 1.778279410038922776e+02
4.937371171187082837e+03 3.162277660168379612e+02
