# Temperature (K), Pressure (bars)
1.027305757874002211e+03 3.162277660168379394e-03
1.077523860059055778e+03 5.623413251903490971e-03
1.127741962522376070e+03 1.000000000000000021e-02
1.172302022407642198e+03 1.778279410038922925e-02
1.215211856971095585e+03 3.162277660168379134e-02
1.260110603988150160e+03 5.623413251903491145e-02
1.307757918882564354e+03 1.000000000000000056e-01
1.361670255768138986e+03 1.778279410038922925e-01
1.430776206692273490e+03 3.162277660168379412e-01
1.520736079865915826e+03 5.623413251903490728e-01
1.635543534750214576e+03 1.000000000000000000e+00
1.779148547106987280e+03 1.778279410038922759e+00
1.954393995073754013e+03 3.162277660168379523e+00
2.190415786786012177e+03 5.623413251903491172e+00
2.489952443005347959e+03 1.000000000000000000e+01
2.799305010031005168e+03 1.778279410038922848e+01
3.098848257115441356e+03 3.162277660168379256e+01
3.400414464520386446e+03 5.623413251903490817e+01
3.711699816755425218e+03 1.000000000000000000e+02
4.037583509142697039e+03 1.778279410038922776e+02
4.393078321772303752e+03 3.162277660168379612e+02
