# Temperature (K), Pressure (bars)
2.121711658397329302e+03 9.999999999999999547e-07
2.173297976645674680e+03 1.778279410038922901e-06
2.224884295432733779e+03 3.162277660168379191e-06
2.266968298197250078e+03 5.623413251903491208e-06
2.300986349086478185e+03 1.000000000000000082e-05
2.330881048512687812e+03 1.778279410038922901e-05
2.359427806683484960e+03 3.162277660168379530e-05
2.390075841383900297e+03 5.623413251903490700e-05
2.426207445496213950e+03 1.000000000000000048e-04
2.470645544036329738e+03 1.778279410038922698e-04
2.525508544411037292e+03 3.162277660168379394e-04
2.592331668742514921e+03 5.623413251903490971e-04
2.672033854561703265e+03 1.000000000000000021e-03
2.764880911793784435e+03 1.778279410038922752e-03
2.870566420993992324e+03 3.162277660168379394e-03
2.987577206807271978e+03 5.623413251903490971e-03
3.115419268167635892e+03 1.000000000000000021e-02
3.257249604184230975e+03 1.778279410038922925e-02
3.429724452346573344e+03 3.162277660168379134e-02
3.668590937093902539e+03 5.623413251903491145e-02
4.005068436166015090e+03 1.000000000000000056e-01
4.574978658957768857e+03 1.778279410038922925e-01
5.471157339633796255e+03 3.162277660168379412e-01
6.732881170884526910e+03 5.623413251903490728e-01
8.248838655760597248e+03 1.000000000000000000e+00
9.687715283465455286e+03 1.778279410038922759e+00
1.117232513255360755e+04 3.162277660168379523e+00
1.299277587163614771e+04 5.623413251903491172e+00
1.530473083072353438e+04 1.000000000000000000e+01
1.823407237537983383e+04 1.778279410038922848e+01
2.193179546593239866e+04 3.162277660168379256e+01
2.656936219301696474e+04 5.623413251903490817e+01
3.231755210018431171e+04 1.000000000000000000e+02
3.933255076157290750e+04 1.778279410038922776e+02
4.769299476765735744e+04 3.162277660168379612e+02
