# Temperature (K), Pressure (bars)
2.201261061252224863e+03 9.999999999999999547e-07
2.215214308489708856e+03 1.778279410038922901e-06
2.229167555727192848e+03 3.162277660168379191e-06
2.251945803078028348e+03 5.623413251903491208e-06
2.279542124934096591e+03 1.000000000000000082e-05
2.309809419017827622e+03 1.778279410038922901e-05
2.344246917179571938e+03 3.162277660168379530e-05
2.382866092837472024e+03 5.623413251903490700e-05
2.426239142537740918e+03 1.000000000000000048e-04
2.474797451471181830e+03 1.778279410038922698e-04
2.526860497318730268e+03 3.162277660168379394e-04
2.580201517159270225e+03 5.623413251903490971e-04
2.633073260784920421e+03 1.000000000000000021e-03
2.682968763729536477e+03 1.778279410038922752e-03
2.726873688632591893e+03 3.162277660168379394e-03
2.763818007296738870e+03 5.623413251903490971e-03
2.795893400590522106e+03 1.000000000000000021e-02
2.832735005287475815e+03 1.778279410038922925e-02
2.878159045307953420e+03 3.162277660168379134e-02
2.946239707128711871e+03 5.623413251903491145e-02
3.062405089917033365e+03 1.000000000000000056e-01
3.212560516736496993e+03 1.778279410038922925e-01
3.379360817789780413e+03 3.162277660168379412e-01
3.568721275486050672e+03 5.623413251903490728e-01
3.784229560441924150e+03 1.000000000000000000e+00
4.028981430707573963e+03 1.778279410038922759e+00
4.308270774387840902e+03 3.162277660168379523e+00
4.632818254769477790e+03 5.623413251903491172e+00
5.011085282688814004e+03 1.000000000000000000e+01
5.484412931918403046e+03 1.778279410038922848e+01
6.108589418711465441e+03 3.162277660168379256e+01
6.988989319847335537e+03 5.623413251903490817e+01
8.280772239686137254e+03 1.000000000000000000e+02
1.000000000000000000e+04 1.778279410038922776e+02
1.000000000000000000e+04 3.162277660168379612e+02
