# Temperature (K), Pressure (bars)
8.642198897166132383e+02 3.162277660168379394e-04
9.176701178569127251e+02 5.623413251903490971e-04
9.711203470684775994e+02 1.000000000000000021e-03
1.023215150828692003e+03 1.778279410038922752e-03
1.074522053901465142e+03 3.162277660168379394e-03
1.127578274607118828e+03 5.623413251903490971e-03
1.185368229086910105e+03 1.000000000000000021e-02
1.251415999613455597e+03 1.778279410038922925e-02
1.331769723835824152e+03 3.162277660168379134e-02
1.434205522686682798e+03 5.623413251903491145e-02
1.588241934786360844e+03 1.000000000000000056e-01
1.814806014055459627e+03 1.778279410038922925e-01
2.075582451915782713e+03 3.162277660168379412e-01
2.330931354721180469e+03 5.623413251903490728e-01
2.572789593561107267e+03 1.000000000000000000e+00
2.801948262320641788e+03 1.778279410038922759e+00
3.024739279426461962e+03 3.162277660168379523e+00
3.248327687744454124e+03 5.623413251903491172e+00
3.479393708980914198e+03 1.000000000000000000e+01
3.724130642977115258e+03 1.778279410038922848e+01
3.990801398058178165e+03 3.162277660168379256e+01
4.283875106034748569e+03 5.623413251903490817e+01
4.610282594039064861e+03 1.000000000000000000e+02
4.973506786878287130e+03 1.778279410038922776e+02
5.393693324582261994e+03 3.162277660168379612e+02
