# Temperature (K), Pressure (bars)
8.822637290230584313e+02 1.000000000000000021e-03
9.250109891485672051e+02 1.778279410038922752e-03
9.677582501282622616e+02 3.162277660168379394e-03
1.010539478362334762e+03 5.623413251903490971e-03
1.053610987568697283e+03 1.000000000000000021e-02
1.097511738197913019e+03 1.778279410038922925e-02
1.143006174192313210e+03 3.162277660168379134e-02
1.192326237444016670e+03 5.623413251903491145e-02
1.248498665519669430e+03 1.000000000000000056e-01
1.317439346554396707e+03 1.778279410038922925e-01
1.414568786170052590e+03 3.162277660168379412e-01
1.553512877799852504e+03 5.623413251903490728e-01
1.741402964139792857e+03 1.000000000000000000e+00
1.986601873445702722e+03 1.778279410038922759e+00
2.272192475194380222e+03 3.162277660168379523e+00
2.561256407588150068e+03 5.623413251903491172e+00
2.840788287771206797e+03 1.000000000000000000e+01
3.116070021280768742e+03 1.778279410038922848e+01
3.394916110965121788e+03 3.162277660168379256e+01
3.683916073767049966e+03 5.623413251903490817e+01
3.990809297198130935e+03 1.000000000000000000e+02
4.319831293362074575e+03 1.778279410038922776e+02
4.686400513409322230e+03 3.162277660168379612e+02
