# Temperature (K), Pressure (bars)
1.752268216658989786e+03 9.999999999999999547e-07
1.765561430259466533e+03 1.778279410038922901e-06
1.778854643860392571e+03 3.162277660168379191e-06
1.801280777690919876e+03 5.623413251903491208e-06
1.831094784732846165e+03 1.000000000000000082e-05
1.864865258783245508e+03 1.778279410038922901e-05
1.903634900723587180e+03 3.162277660168379530e-05
1.946896130516692210e+03 5.623413251903490700e-05
1.993500321173242810e+03 1.000000000000000048e-04
2.043653813522063047e+03 1.778279410038922698e-04
2.096923261528899275e+03 3.162277660168379394e-04
2.153362226005661796e+03 5.623413251903490971e-04
2.213888136847426722e+03 1.000000000000000021e-03
2.280909361002370133e+03 1.778279410038922752e-03
2.362505073127061223e+03 3.162277660168379394e-03
2.463550595849295860e+03 5.623413251903490971e-03
2.577596603400077129e+03 1.000000000000000021e-02
2.700264350109868246e+03 1.778279410038922925e-02
2.832892433576014355e+03 3.162277660168379134e-02
2.976810199169103271e+03 5.623413251903491145e-02
3.133981034224206269e+03 1.000000000000000056e-01
3.307162182039612162e+03 1.778279410038922925e-01
3.499740242778633728e+03 3.162277660168379412e-01
3.715234509840239298e+03 5.623413251903490728e-01
3.958182623463278105e+03 1.000000000000000000e+00
4.236964444761768391e+03 1.778279410038922759e+00
4.548503246759741160e+03 3.162277660168379523e+00
4.932711210618750556e+03 5.623413251903491172e+00
5.431937982544073748e+03 1.000000000000000000e+01
6.122278187921704557e+03 1.778279410038922848e+01
7.122597481686693754e+03 3.162277660168379256e+01
8.598477002399937192e+03 5.623413251903490817e+01
1.049582688471388246e+04 1.000000000000000000e+02
1.277407923835044130e+04 1.778279410038922776e+02
1.549131075524326479e+04 3.162277660168379612e+02
