# Temperature (K), Pressure (bars)
1.631724338524071300e+03 1.000000000000000082e-05
1.645062488616214068e+03 1.778279410038922901e-05
1.658400641158122198e+03 3.162277660168379530e-05
1.676825113878511729e+03 5.623413251903490700e-05
1.703515191309707916e+03 1.000000000000000048e-04
1.736382849518907506e+03 1.778279410038922698e-04
1.773119919522054943e+03 3.162277660168379394e-04
1.815326165627786850e+03 5.623413251903490971e-04
1.861795684719703331e+03 1.000000000000000021e-03
1.910930506772824629e+03 1.778279410038922752e-03
1.963026595320159913e+03 3.162277660168379394e-03
2.018459987603921036e+03 5.623413251903490971e-03
2.078179797549902105e+03 1.000000000000000021e-02
2.143027526804103218e+03 1.778279410038922925e-02
2.216482004672198855e+03 3.162277660168379134e-02
2.303843000095663228e+03 5.623413251903491145e-02
2.425543638668003041e+03 1.000000000000000056e-01
2.590347088324825108e+03 1.778279410038922925e-01
2.766434715324282479e+03 3.162277660168379412e-01
2.939785257983782230e+03 5.623413251903490728e-01
3.120846612812988496e+03 1.000000000000000000e+00
3.313022117472140053e+03 1.778279410038922759e+00
3.518555282582563905e+03 3.162277660168379523e+00
3.739795543586298209e+03 5.623413251903491172e+00
3.980372555610823383e+03 1.000000000000000000e+01
4.245508862624977155e+03 1.778279410038922848e+01
4.541877981833315971e+03 3.162277660168379256e+01
4.878295089328980794e+03 5.623413251903490817e+01
5.270443097355921054e+03 1.000000000000000000e+02
5.729918195916166042e+03 1.778279410038922776e+02
6.278073924324001382e+03 3.162277660168379612e+02
