# Temperature (K), Pressure (bars)
8.895079217933467817e+02 3.162277660168379394e-04
9.450039340759107063e+02 5.623413251903490971e-04
1.000499947535694787e+03 1.000000000000000021e-03
1.054017261084808524e+03 1.778279410038922752e-03
1.106796912723504420e+03 3.162277660168379394e-03
1.161193397381155819e+03 5.623413251903490971e-03
1.220679661672433213e+03 1.000000000000000021e-02
1.288737587664618104e+03 1.778279410038922925e-02
1.376667357323894294e+03 3.162277660168379134e-02
1.504438506229333598e+03 5.623413251903491145e-02
1.691194295697414873e+03 1.000000000000000056e-01
1.932993732698735585e+03 1.778279410038922925e-01
2.190345902379120162e+03 3.162277660168379412e-01
2.434617272130528363e+03 5.623413251903490728e-01
2.664335722644638281e+03 1.000000000000000000e+00
2.883864441888820693e+03 1.778279410038922759e+00
3.100032288578745010e+03 3.162277660168379523e+00
3.319666594712643473e+03 5.623413251903491172e+00
3.549032587559408967e+03 1.000000000000000000e+01
3.793965107504576281e+03 1.778279410038922848e+01
4.062521179713953643e+03 3.162277660168379256e+01
4.359252435241770399e+03 5.623413251903490817e+01
4.691289470449149121e+03 1.000000000000000000e+02
5.061878522720105138e+03 1.778279410038922776e+02
5.492932322476727677e+03 3.162277660168379612e+02
