# Temperature (K), Pressure (bars)
1.716465880652278429e+03 1.778279410038922901e-06
1.724069487966889028e+03 3.162277660168379191e-06
1.735775214469382263e+03 5.623413251903491208e-06
1.751554087944327421e+03 1.000000000000000082e-05
1.771751290919902885e+03 1.778279410038922901e-05
1.799790876345510469e+03 3.162277660168379530e-05
1.835224973452602171e+03 5.623413251903490700e-05
1.876390880317227584e+03 1.000000000000000048e-04
1.923799367778858368e+03 1.778279410038922698e-04
1.976530033213783554e+03 3.162277660168379394e-04
2.033685246909550187e+03 5.623413251903490971e-04
2.096462685028644046e+03 1.000000000000000021e-03
2.163925204429364840e+03 1.778279410038922752e-03
2.242527157868627000e+03 3.162277660168379394e-03
2.343974761205845425e+03 5.623413251903490971e-03
2.460889112742524958e+03 1.000000000000000021e-02
2.583846292921532950e+03 1.778279410038922925e-02
2.714396127875279035e+03 3.162277660168379134e-02
2.853916317351827274e+03 5.623413251903491145e-02
3.004197678295095102e+03 1.000000000000000056e-01
3.167534841106951262e+03 1.778279410038922925e-01
3.346374495122162443e+03 3.162277660168379412e-01
3.542534462851747321e+03 5.623413251903490728e-01
3.757692101587806974e+03 1.000000000000000000e+00
3.995455872486231783e+03 1.778279410038922759e+00
4.262859294682334621e+03 3.162277660168379523e+00
4.570816024996490341e+03 5.623413251903491172e+00
4.931159024948545266e+03 1.000000000000000000e+01
5.375233521556514461e+03 1.778279410038922848e+01
5.947830803115532945e+03 3.162277660168379256e+01
6.732482017795374304e+03 5.623413251903490817e+01
7.867297369204586175e+03 1.000000000000000000e+02
9.473537368141769548e+03 1.778279410038922776e+02
1.147564341345058347e+04 3.162277660168379612e+02
