# Temperature (K), Pressure (bars)
2.400539227953636328e+03 9.999999999999999547e-07
2.417075109831314876e+03 1.778279410038922901e-06
2.433610991709023892e+03 3.162277660168379191e-06
2.457295430424324877e+03 5.623413251903491208e-06
2.485956725908611588e+03 1.000000000000000082e-05
2.518394350186303200e+03 1.778279410038922901e-05
2.552432274545349173e+03 3.162277660168379530e-05
2.587860873839166743e+03 5.623413251903490700e-05
2.625384783976684048e+03 1.000000000000000048e-04
2.664393179599635914e+03 1.778279410038922698e-04
2.704425525676308553e+03 3.162277660168379394e-04
2.743835494425787601e+03 5.623413251903490971e-04
2.779838056528824382e+03 1.000000000000000021e-03
2.808758931862452300e+03 1.778279410038922752e-03
2.829642884226961996e+03 3.162277660168379394e-03
2.848993505986652053e+03 5.623413251903490971e-03
2.876368401907423049e+03 1.000000000000000021e-02
2.919863861422571063e+03 1.778279410038922925e-02
2.980080589282480105e+03 3.162277660168379134e-02
3.063683363861496673e+03 5.623413251903491145e-02
3.186638308970440448e+03 1.000000000000000056e-01
3.342444181774535537e+03 1.778279410038922925e-01
3.520864302194966058e+03 3.162277660168379412e-01
3.727333295332977741e+03 5.623413251903490728e-01
3.969081958817261693e+03 1.000000000000000000e+00
4.256077726270169478e+03 1.778279410038922759e+00
4.574180947495478904e+03 3.162277660168379523e+00
4.969989379426431697e+03 5.623413251903491172e+00
5.492534979326745997e+03 1.000000000000000000e+01
6.240857681389118625e+03 1.778279410038922848e+01
7.382458281990932846e+03 3.162277660168379256e+01
8.998741175719564126e+03 5.623413251903490817e+01
1.098781750115984323e+04 1.000000000000000000e+02
1.337803926782555936e+04 1.778279410038922776e+02
1.623007407521444293e+04 3.162277660168379612e+02
