# Temperature (K), Pressure (bars)
8.826410430065894843e+02 5.623413251903490700e-05
9.270096240710446409e+02 1.000000000000000048e-04
9.713782050577775635e+02 1.778279410038922698e-04
1.017127140692786611e+03 3.162277660168379394e-04
1.064181634457281916e+03 5.623413251903490971e-04
1.111508949487997370e+03 1.000000000000000021e-03
1.157072198044886363e+03 1.778279410038922752e-03
1.199355248254975777e+03 3.162277660168379394e-03
1.241076616614574277e+03 5.623413251903490971e-03
1.287301464296316681e+03 1.000000000000000021e-02
1.335903901292735327e+03 1.778279410038922925e-02
1.386171470050975586e+03 3.162277660168379134e-02
1.448539447705480825e+03 5.623413251903491145e-02
1.511600032229296630e+03 1.000000000000000056e-01
1.629321822931317683e+03 1.778279410038922925e-01
1.872768839748640858e+03 3.162277660168379412e-01
2.159791251756812017e+03 5.623413251903490728e-01
2.421444419407196619e+03 1.000000000000000000e+00
2.669312214576454608e+03 1.778279410038922759e+00
2.905896814396093760e+03 3.162277660168379523e+00
3.138051797795530092e+03 5.623413251903491172e+00
3.373637587660328336e+03 1.000000000000000000e+01
3.619797832926019964e+03 1.778279410038922848e+01
3.885244703813345950e+03 3.162277660168379256e+01
4.174585317883907010e+03 5.623413251903490817e+01
4.494518977456856192e+03 1.000000000000000000e+02
4.848429803834896120e+03 1.778279410038922776e+02
5.254790797204724186e+03 3.162277660168379612e+02
