# Temperature (K), Pressure (bars)
8.558550597761632162e+02 3.162277660168379530e-05
9.040133242162207807e+02 5.623413251903490700e-05
9.521715880649724113e+02 1.000000000000000048e-04
9.981288689539079542e+02 1.778279410038922698e-04
1.045686219912617389e+03 3.162277660168379394e-04
1.097673098738212957e+03 5.623413251903490971e-04
1.150604606878257300e+03 1.000000000000000021e-03
1.201503773273972456e+03 1.778279410038922752e-03
1.248030566175001013e+03 3.162277660168379394e-03
1.287457594717945085e+03 5.623413251903490971e-03
1.324005739528406139e+03 1.000000000000000021e-02
1.365058986021977717e+03 1.778279410038922925e-02
1.419871341238718287e+03 3.162277660168379134e-02
1.477524009710499968e+03 5.623413251903491145e-02
1.572519322577104504e+03 1.000000000000000056e-01
1.770055055510151988e+03 1.778279410038922925e-01
2.027104483706477140e+03 3.162277660168379412e-01
2.284787651487823041e+03 5.623413251903490728e-01
2.533849782623611645e+03 1.000000000000000000e+00
2.769290199196009780e+03 1.778279410038922759e+00
2.996372546307160064e+03 3.162277660168379523e+00
3.222475718407348722e+03 5.623413251903491172e+00
3.454890436696462984e+03 1.000000000000000000e+01
3.700178892482360880e+03 1.778279410038922848e+01
3.966649509821083484e+03 3.162277660168379256e+01
4.259001353410099000e+03 5.623413251903490817e+01
4.583996765818932545e+03 1.000000000000000000e+02
4.945089697074065043e+03 1.778279410038922776e+02
5.361736404750537986e+03 3.162277660168379612e+02
