# Temperature (K), Pressure (bars)
1.161190624408028725e+03 9.999999999999999547e-07
1.246379126974523160e+03 1.778279410038922901e-06
1.331567629541017823e+03 3.162277660168379191e-06
1.401534127558536966e+03 5.623413251903491208e-06
1.457960352686453007e+03 1.000000000000000082e-05
1.518405708048993347e+03 1.778279410038922901e-05
1.599136985693224233e+03 3.162277660168379530e-05
1.682673561398090897e+03 5.623413251903490700e-05
1.753935096581017660e+03 1.000000000000000048e-04
1.824213730226037796e+03 1.778279410038922698e-04
1.897143693858462484e+03 3.162277660168379394e-04
1.972422265132133361e+03 5.623413251903490971e-04
2.056004940585591612e+03 1.000000000000000021e-03
2.156201932007717005e+03 1.778279410038922752e-03
2.275414419387918315e+03 3.162277660168379394e-03
2.405466589497137647e+03 5.623413251903490971e-03
2.541037458828091985e+03 1.000000000000000021e-02
2.683181238857495373e+03 1.778279410038922925e-02
2.833941722438888519e+03 3.162277660168379134e-02
2.995855103322451669e+03 5.623413251903491145e-02
3.171357977252133423e+03 1.000000000000000056e-01
3.362017239239321952e+03 1.778279410038922925e-01
3.569321476480798083e+03 3.162277660168379412e-01
3.797347826153480128e+03 5.623413251903490728e-01
4.054676651188452979e+03 1.000000000000000000e+00
4.355669886050210152e+03 1.778279410038922759e+00
4.707715501952198792e+03 3.162277660168379523e+00
5.163960603256636205e+03 5.623413251903491172e+00
5.795511182582476977e+03 1.000000000000000000e+01
6.714545655552431526e+03 1.778279410038922848e+01
8.089792631928180526e+03 3.162277660168379256e+01
9.894018491254984838e+03 5.623413251903490817e+01
1.000000000000000000e+04 1.000000000000000000e+02
1.000000000000000000e+04 1.778279410038922776e+02
1.000000000000000000e+04 3.162277660168379612e+02
