# Temperature (K), Pressure (bars)
1.033234931222326395e+03 9.999999999999999547e-07
1.090340150741102889e+03 1.778279410038922901e-06
1.147445370259991478e+03 3.162277660168379191e-06
1.205357392912616206e+03 5.623413251903491208e-06
1.262446765002457369e+03 1.000000000000000082e-05
1.317716815444977328e+03 1.778279410038922901e-05
1.377180707821338046e+03 3.162277660168379530e-05
1.447617171831531095e+03 5.623413251903490700e-05
1.531021822602273005e+03 1.000000000000000048e-04
1.626082375708019981e+03 1.778279410038922698e-04
1.722869704016632568e+03 3.162277660168379394e-04
1.814615836985254191e+03 5.623413251903490971e-04
1.903443378988265977e+03 1.000000000000000021e-03
1.999939295980109137e+03 1.778279410038922752e-03
2.119360307799466682e+03 3.162277660168379394e-03
2.259111531465290227e+03 5.623413251903490971e-03
2.405859081273378706e+03 1.000000000000000021e-02
2.555568088212019575e+03 1.778279410038922925e-02
2.710021823831762958e+03 3.162277660168379134e-02
2.871224401531442709e+03 5.623413251903491145e-02
3.041064634625626240e+03 1.000000000000000056e-01
3.220793149448121767e+03 1.778279410038922925e-01
3.411246266548346284e+03 3.162277660168379412e-01
3.614618710307984202e+03 5.623413251903490728e-01
3.835744053847363375e+03 1.000000000000000000e+00
4.081866514842286961e+03 1.778279410038922759e+00
4.362728951843730101e+03 3.162277660168379523e+00
4.687492953518882132e+03 5.623413251903491172e+00
5.083351084895629356e+03 1.000000000000000000e+01
5.585712915832192266e+03 1.778279410038922848e+01
6.253743152072666817e+03 3.162277660168379256e+01
7.189055648347636634e+03 5.623413251903490817e+01
8.558814202887171632e+03 1.000000000000000000e+02
1.039288381294361534e+04 1.778279410038922776e+02
1.260197326932195392e+04 3.162277660168379612e+02
