# Temperature (K), Pressure (bars)
2.089846309019469118e+03 9.999999999999999547e-07
2.121268679341694678e+03 1.778279410038922901e-06
2.152691049663920239e+03 3.162277660168379191e-06
2.189751360474777357e+03 5.623413251903491208e-06
2.230300555270173845e+03 1.000000000000000082e-05
2.273277012854503027e+03 1.778279410038922901e-05
2.318675382024498958e+03 3.162277660168379530e-05
2.363803687796019858e+03 5.623413251903490700e-05
2.406272702326751187e+03 1.000000000000000048e-04
2.445388808807156693e+03 1.778279410038922698e-04
2.481241749546248684e+03 3.162277660168379394e-04
2.514607960234001439e+03 5.623413251903490971e-04
2.547930470710323789e+03 1.000000000000000021e-03
2.584658707977341237e+03 1.778279410038922752e-03
2.628722030111182448e+03 3.162277660168379394e-03
2.682126323243339812e+03 5.623413251903490971e-03
2.746459352915950149e+03 1.000000000000000021e-02
2.815257055443415993e+03 1.778279410038922925e-02
2.899505524135897758e+03 3.162277660168379134e-02
3.025554833217754094e+03 5.623413251903491145e-02
3.182253516273155583e+03 1.000000000000000056e-01
3.358160043495627633e+03 1.778279410038922925e-01
3.561389965083692914e+03 3.162277660168379412e-01
3.790927531920247930e+03 5.623413251903490728e-01
4.054026288174189176e+03 1.000000000000000000e+00
4.361706418778933767e+03 1.778279410038922759e+00
4.715656388619942845e+03 3.162277660168379523e+00
5.175350960850687443e+03 5.623413251903491172e+00
5.820277643750439893e+03 1.000000000000000000e+01
6.799426258422081446e+03 1.778279410038922848e+01
8.257670405437540467e+03 3.162277660168379256e+01
1.000000000000000000e+04 5.623413251903490817e+01
1.000000000000000000e+04 1.000000000000000000e+02
1.000000000000000000e+04 1.778279410038922776e+02
1.000000000000000000e+04 3.162277660168379612e+02
