# Temperature (K), Pressure (bars)
1.768060093569104993e+03 9.999999999999999547e-07
1.770593613676363020e+03 1.778279410038922901e-06
1.773127133784879334e+03 3.162277660168379191e-06
1.778615354941083524e+03 5.623413251903491208e-06
1.788208940205014642e+03 1.000000000000000082e-05
1.804247172948510752e+03 1.778279410038922901e-05
1.826708878237245926e+03 3.162277660168379530e-05
1.853729943218146673e+03 5.623413251903490700e-05
1.886566447479810449e+03 1.000000000000000048e-04
1.926571438661424509e+03 1.778279410038922698e-04
1.972407335414806766e+03 3.162277660168379394e-04
2.023707904195762467e+03 5.623413251903490971e-04
2.079670000585689195e+03 1.000000000000000021e-03
2.140862041139878784e+03 1.778279410038922752e-03
2.206680046766675787e+03 3.162277660168379394e-03
2.284489066028729212e+03 5.623413251903490971e-03
2.387963334432974989e+03 1.000000000000000021e-02
2.509158401267702175e+03 1.778279410038922925e-02
2.636882490352726563e+03 3.162277660168379134e-02
2.772285172885794509e+03 5.623413251903491145e-02
2.916880351220712328e+03 1.000000000000000056e-01
3.072591198856362553e+03 1.778279410038922925e-01
3.241742511579883285e+03 3.162277660168379412e-01
3.426550113559454985e+03 5.623413251903490728e-01
3.628583567361222777e+03 1.000000000000000000e+00
3.849754612190609805e+03 1.778279410038922759e+00
4.094208420394354107e+03 3.162277660168379523e+00
4.369031294118613914e+03 5.623413251903491172e+00
4.684477562660438707e+03 1.000000000000000000e+01
5.054535069224001745e+03 1.778279410038922848e+01
5.503609452643925579e+03 3.162277660168379256e+01
6.067782013132259635e+03 5.623413251903490817e+01
6.809891631939119179e+03 1.000000000000000000e+02
7.835488534557563980e+03 1.778279410038922776e+02
9.280080888622018392e+03 3.162277660168379612e+02
