# Temperature (K), Pressure (bars)
1.021904417877786614e+03 3.162277660168379394e-04
1.057634111934420162e+03 5.623413251903490971e-04
1.093363806254428710e+03 1.000000000000000021e-03
1.125282779874964717e+03 1.778279410038922752e-03
1.152192637532584968e+03 3.162277660168379394e-03
1.175485138256462506e+03 5.623413251903490971e-03
1.198519591487022581e+03 1.000000000000000021e-02
1.224378331378213716e+03 1.778279410038922925e-02
1.255470909334869248e+03 3.162277660168379134e-02
1.292412309608175974e+03 5.623413251903491145e-02
1.341803703710961827e+03 1.000000000000000056e-01
1.411359873382191381e+03 1.778279410038922925e-01
1.504312765439789018e+03 3.162277660168379412e-01
1.625803921210991120e+03 5.623413251903490728e-01
1.787647716994971461e+03 1.000000000000000000e+00
2.017519275428061974e+03 1.778279410038922759e+00
2.304418012633293074e+03 3.162277660168379523e+00
2.595505070797652934e+03 5.623413251903491172e+00
2.873061939603073824e+03 1.000000000000000000e+01
3.146144016356320208e+03 1.778279410038922848e+01
3.423393953149399749e+03 3.162277660168379256e+01
3.711691125087523687e+03 5.623413251903490817e+01
4.018721200825684264e+03 1.000000000000000000e+02
4.348806698402457187e+03 1.778279410038922776e+02
4.717048461206439242e+03 3.162277660168379612e+02
