# Temperature (K), Pressure (bars)
2.169096418243543212e+03 9.999999999999999547e-07
2.169970098361270630e+03 1.778279410038922901e-06
2.170843778478997592e+03 3.162277660168379191e-06
2.192210467051746946e+03 5.623413251903491208e-06
2.221962787838528129e+03 1.000000000000000082e-05
2.253047539863055590e+03 1.778279410038922901e-05
2.288576057997618591e+03 3.162277660168379530e-05
2.329709923927727687e+03 5.623413251903490700e-05
2.376506706952526656e+03 1.000000000000000048e-04
2.427582231546915864e+03 1.778279410038922698e-04
2.481276180956603639e+03 3.162277660168379394e-04
2.534739602416632351e+03 5.623413251903490971e-04
2.585925265170420062e+03 1.000000000000000021e-03
2.634222417097530069e+03 1.778279410038922752e-03
2.678193241916152147e+03 3.162277660168379394e-03
2.719545194332473329e+03 5.623413251903490971e-03
2.761319966404210390e+03 1.000000000000000021e-02
2.811371114796264919e+03 1.778279410038922925e-02
2.861459851897036060e+03 3.162277660168379134e-02
2.929698182446106784e+03 5.623413251903491145e-02
3.060602488184063077e+03 1.000000000000000056e-01
3.225842375905101562e+03 1.778279410038922925e-01
3.399626638169134367e+03 3.162277660168379412e-01
3.596875432505170465e+03 5.623413251903490728e-01
3.820241597929064937e+03 1.000000000000000000e+00
4.072579826073407276e+03 1.778279410038922759e+00
4.360982779223989382e+03 3.162277660168379523e+00
4.685569137957535531e+03 5.623413251903491172e+00
5.081457105583082011e+03 1.000000000000000000e+01
5.585605642048792106e+03 1.778279410038922848e+01
6.268851320271117402e+03 3.162277660168379256e+01
7.261013296481873112e+03 5.623413251903490817e+01
8.707654329699462323e+03 1.000000000000000000e+02
1.000000000000000000e+04 1.778279410038922776e+02
1.000000000000000000e+04 3.162277660168379612e+02
