# Temperature (K), Pressure (bars)
1.037617023866772115e+03 1.000000000000000082e-05
1.094185062339214255e+03 1.778279410038922901e-05
1.150753101981249984e+03 3.162277660168379530e-05
1.203099694967569349e+03 5.623413251903490700e-05
1.251708112622952285e+03 1.000000000000000048e-04
1.300195941169893786e+03 1.778279410038922698e-04
1.353719684461147153e+03 3.162277660168379394e-04
1.418816346657071335e+03 5.623413251903490971e-04
1.496846655853161565e+03 1.000000000000000021e-03
1.586869325833464472e+03 1.778279410038922752e-03
1.685299235685801250e+03 3.162277660168379394e-03
1.795692941018424563e+03 5.623413251903490971e-03
1.921403657176007073e+03 1.000000000000000021e-02
2.066651390720065592e+03 1.778279410038922925e-02
2.240548372066686170e+03 3.162277660168379134e-02
2.419413249377683314e+03 5.623413251903491145e-02
2.587799730808636014e+03 1.000000000000000056e-01
2.756280123196916975e+03 1.778279410038922925e-01
2.928642828265597473e+03 3.162277660168379412e-01
3.107399076084982426e+03 5.623413251903490728e-01
3.294307008666467027e+03 1.000000000000000000e+00
3.491404857894519409e+03 1.778279410038922759e+00
3.702075093700997968e+03 3.162277660168379523e+00
3.930942334449629016e+03 5.623413251903491172e+00
4.183440203143863073e+03 1.000000000000000000e+01
4.466070165325223570e+03 1.778279410038922848e+01
4.787445027099729487e+03 3.162277660168379256e+01
5.162635543812429205e+03 5.623413251903490817e+01
5.603666129313567581e+03 1.000000000000000000e+02
6.131438135299539681e+03 1.778279410038922776e+02
6.776277458465438940e+03 3.162277660168379612e+02
