# Temperature (K), Pressure (bars)
2.367897588425146751e+03 9.999999999999999547e-07
2.388199910983103564e+03 1.778279410038922901e-06
2.408502233541060832e+03 3.162277660168379191e-06
2.436520171339437184e+03 5.623413251903491208e-06
2.469387471184267724e+03 1.000000000000000082e-05
2.500703360453106143e+03 1.778279410038922901e-05
2.534342790120776499e+03 3.162277660168379530e-05
2.571216132725813168e+03 5.623413251903490700e-05
2.610817111390331320e+03 1.000000000000000048e-04
2.654024979300168525e+03 1.778279410038922698e-04
2.699044551320575465e+03 3.162277660168379394e-04
2.743859089984804086e+03 5.623413251903490971e-04
2.784841457497243482e+03 1.000000000000000021e-03
2.818361874893924778e+03 1.778279410038922752e-03
2.844795209907094431e+03 3.162277660168379394e-03
2.872916241492009249e+03 5.623413251903490971e-03
2.912471606951582544e+03 1.000000000000000021e-02
2.970523698600881744e+03 1.778279410038922925e-02
3.040465313169730507e+03 3.162277660168379134e-02
3.128213621758964564e+03 5.623413251903491145e-02
3.261753683765442020e+03 1.000000000000000056e-01
3.433794153889512927e+03 1.778279410038922925e-01
3.623475371738977174e+03 3.162277660168379412e-01
3.843104182682690407e+03 5.623413251903490728e-01
4.101217214932559727e+03 1.000000000000000000e+00
4.397095655610763970e+03 1.778279410038922759e+00
4.765645774588214408e+03 3.162277660168379523e+00
5.255389364607511197e+03 5.623413251903491172e+00
5.969941107115033446e+03 1.000000000000000000e+01
7.084465952575770643e+03 1.778279410038922848e+01
8.667763643334854351e+03 3.162277660168379256e+01
1.000000000000000000e+04 5.623413251903490817e+01
1.000000000000000000e+04 1.000000000000000000e+02
1.000000000000000000e+04 1.778279410038922776e+02
1.000000000000000000e+04 3.162277660168379612e+02
