# Temperature (K), Pressure (bars)
8.690989273540170643e+02 3.162277660168379394e-04
9.237481223374286401e+02 5.623413251903490971e-04
9.783973183379767988e+02 1.000000000000000021e-03
1.031368620528266547e+03 1.778279410038922752e-03
1.083464527368292920e+03 3.162277660168379394e-03
1.137384259416012583e+03 5.623413251903490971e-03
1.196178376753573048e+03 1.000000000000000021e-02
1.263714950430642830e+03 1.778279410038922925e-02
1.346250799419625764e+03 3.162277660168379134e-02
1.455978048091788878e+03 5.623413251903491145e-02
1.614933560168806252e+03 1.000000000000000056e-01
1.837213680026932025e+03 1.778279410038922925e-01
2.097668466539823385e+03 3.162277660168379412e-01
2.354352208530115604e+03 5.623413251903490728e-01
2.593328290995984844e+03 1.000000000000000000e+00
2.820119400437002241e+03 1.778279410038922759e+00
3.041325554702089448e+03 3.162277660168379523e+00
3.263986894926970763e+03 5.623413251903491172e+00
3.494650844505865734e+03 1.000000000000000000e+01
3.739428349673188677e+03 1.778279410038922848e+01
4.006459285317999274e+03 3.162277660168379256e+01
4.300316718081002364e+03 5.623413251903490817e+01
4.627955922986771839e+03 1.000000000000000000e+02
4.992608302148594703e+03 1.778279410038922776e+02
5.415238524977288762e+03 3.162277660168379612e+02
