# Temperature (K), Pressure (bars)
9.610165906654925720e+02 5.623413251903490700e-05
1.007532865776956555e+03 1.000000000000000048e-04
1.054049143015076424e+03 1.778279410038922698e-04
1.101928516364949019e+03 3.162277660168379394e-04
1.151320596855244048e+03 5.623413251903490971e-04
1.202803573442841071e+03 1.000000000000000021e-03
1.256582625953744582e+03 1.778279410038922752e-03
1.312889891746071044e+03 3.162277660168379394e-03
1.373115746288664241e+03 5.623413251903490971e-03
1.440511301264643635e+03 1.000000000000000021e-02
1.519557671442935316e+03 1.778279410038922925e-02
1.618804215812454459e+03 3.162277660168379134e-02
1.744301378870282178e+03 5.623413251903491145e-02
1.920231008393764796e+03 1.000000000000000056e-01
2.155518651635541573e+03 1.778279410038922925e-01
2.395803263324820364e+03 3.162277660168379412e-01
2.612461750664876035e+03 5.623413251903490728e-01
2.819884552178744798e+03 1.000000000000000000e+00
3.025319786797474535e+03 1.778279410038922759e+00
3.234068708157166384e+03 3.162277660168379523e+00
3.450806648343037068e+03 5.623413251903491172e+00
3.680489380159071970e+03 1.000000000000000000e+01
3.928501139807776781e+03 1.778279410038922848e+01
4.202716264830265573e+03 3.162277660168379256e+01
4.508368860498657341e+03 5.623413251903490817e+01
4.853247376692661419e+03 1.000000000000000000e+02
5.241300391840853081e+03 1.778279410038922776e+02
5.696647940392960663e+03 3.162277660168379612e+02
