# Temperature (K), Pressure (bars)
8.915302522519274362e+02 3.162277660168379394e-03
9.353918533144549201e+02 5.623413251903490971e-03
9.792534555303728894e+02 1.000000000000000021e-02
1.022425670586763772e+03 1.778279410038922925e-02
1.064834229148698569e+03 3.162277660168379134e-02
1.107730129934641809e+03 5.623413251903491145e-02
1.153707128076131539e+03 1.000000000000000056e-01
1.205873814404387304e+03 1.778279410038922925e-01
1.268539477158811451e+03 3.162277660168379412e-01
1.346000263006616706e+03 5.623413251903490728e-01
1.449711120110686124e+03 1.000000000000000000e+00
1.597609819669651415e+03 1.778279410038922759e+00
1.793559229776343500e+03 3.162277660168379523e+00
2.043197329692357698e+03 5.623413251903491172e+00
2.341521692534351132e+03 1.000000000000000000e+01
2.651939677849598411e+03 1.778279410038922848e+01
2.960546317313072450e+03 3.162277660168379256e+01
3.270194824092317504e+03 5.623413251903490817e+01
3.586577557712637372e+03 1.000000000000000000e+02
3.915146955771947887e+03 1.778279410038922776e+02
4.269616734725152128e+03 3.162277660168379612e+02
