# Temperature (K), Pressure (bars)
2.378342559787212849e+03 9.999999999999999547e-07
2.394267040499815266e+03 1.778279410038922901e-06
2.410191521212432235e+03 3.162277660168379191e-06
2.435043981487004203e+03 5.623413251903491208e-06
2.463398298122801862e+03 1.000000000000000082e-05
2.494136617491552897e+03 1.778279410038922901e-05
2.526848549906123480e+03 3.162277660168379530e-05
2.559971387147956193e+03 5.623413251903490700e-05
2.594239866183795129e+03 1.000000000000000048e-04
2.629351341303324716e+03 1.778279410038922698e-04
2.663868867930026681e+03 3.162277660168379394e-04
2.695165720705807416e+03 5.623413251903490971e-04
2.719766154888736310e+03 1.000000000000000021e-03
2.736575281836877821e+03 1.778279410038922752e-03
2.750689695618221776e+03 3.162277660168379394e-03
2.771475058834040283e+03 5.623413251903490971e-03
2.804634706337936677e+03 1.000000000000000021e-02
2.853871457889958037e+03 1.778279410038922925e-02
2.917400718677474742e+03 3.162277660168379134e-02
3.004265302745507597e+03 5.623413251903491145e-02
3.132188937568952497e+03 1.000000000000000056e-01
3.288219023959629794e+03 1.778279410038922925e-01
3.460884357890386127e+03 3.162277660168379412e-01
3.658296080572960818e+03 5.623413251903490728e-01
3.886016662866836668e+03 1.000000000000000000e+00
4.149878664068952276e+03 1.778279410038922759e+00
4.459294847739043689e+03 3.162277660168379523e+00
4.813089441222519781e+03 5.623413251903491172e+00
5.258361439559455903e+03 1.000000000000000000e+01
5.853662183068608101e+03 1.778279410038922848e+01
6.714162248904925036e+03 3.162277660168379256e+01
8.002232091424041755e+03 5.623413251903490817e+01
9.754018360534326348e+03 1.000000000000000000e+02
1.187906798760544370e+04 1.778279410038922776e+02
1.441154040017121042e+04 3.162277660168379612e+02
