# Temperature (K), Pressure (bars)
9.629866149198635412e+02 1.000000000000000048e-04
1.008042191956704073e+03 1.778279410038922698e-04
1.053097766462106165e+03 3.162277660168379394e-04
1.088222941220760731e+03 5.623413251903490971e-04
1.118587476831817867e+03 1.000000000000000021e-03
1.148498286333334363e+03 1.778279410038922752e-03
1.177839761318498176e+03 3.162277660168379394e-03
1.207100164810152364e+03 5.623413251903490971e-03
1.235799858098823051e+03 1.000000000000000021e-02
1.264276250364728185e+03 1.778279410038922925e-02
1.295975906774657233e+03 3.162277660168379134e-02
1.331444870724552857e+03 5.623413251903491145e-02
1.375034440307793375e+03 1.000000000000000056e-01
1.440872846558575475e+03 1.778279410038922925e-01
1.538332360197332719e+03 3.162277660168379412e-01
1.663972882517158951e+03 5.623413251903490728e-01
1.834281088757594034e+03 1.000000000000000000e+00
2.075315798875587461e+03 1.778279410038922759e+00
2.357102281786708772e+03 3.162277660168379523e+00
2.638113484137340492e+03 5.623413251903491172e+00
2.911809243365064503e+03 1.000000000000000000e+01
3.181948868618642337e+03 1.778279410038922848e+01
3.457276476400493266e+03 3.162277660168379256e+01
3.744705609744720732e+03 5.623413251903490817e+01
4.051709593385879543e+03 1.000000000000000000e+02
4.382197387437505313e+03 1.778279410038922776e+02
4.752005811466663545e+03 3.162277660168379612e+02
