# Temperature (K), Pressure (bars)
7.862941583383908437e+02 1.000000000000000048e-04
8.274140132997375758e+02 1.778279410038922698e-04
8.685338695547460475e+02 3.162277660168379394e-04
9.098970127329354227e+02 5.623413251903490971e-04
9.515742842733360476e+02 1.000000000000000021e-03
9.940828609610379090e+02 1.778279410038922752e-03
1.037918331659841442e+03 3.162277660168379394e-03
1.084514170187944728e+03 5.623413251903490971e-03
1.138200192833622395e+03 1.000000000000000021e-02
1.203156650479910013e+03 1.778279410038922925e-02
1.291139501765016576e+03 3.162277660168379134e-02
1.441533512830939344e+03 5.623413251903491145e-02
1.668141359384760108e+03 1.000000000000000056e-01
1.928172729217106280e+03 1.778279410038922925e-01
2.189062791764914436e+03 3.162277660168379412e-01
2.438338238936950347e+03 5.623413251903490728e-01
2.669533549118633800e+03 1.000000000000000000e+00
2.888275040868572432e+03 1.778279410038922759e+00
3.103035424505063474e+03 3.162277660168379523e+00
3.321539272022961086e+03 5.623413251903491172e+00
3.550135868745864627e+03 1.000000000000000000e+01
3.794574985224076045e+03 1.778279410038922848e+01
4.063010642092302078e+03 3.162277660168379256e+01
4.359593973495811042e+03 5.623413251903490817e+01
4.691392825818299571e+03 1.000000000000000000e+02
5.061655824642548396e+03 1.778279410038922776e+02
5.492073890706864404e+03 3.162277660168379612e+02
