# Temperature (K), Pressure (bars)
1.355167704278328983e+03 9.999999999999999547e-07
1.390859769392638327e+03 1.778279410038922901e-06
1.426551834506947671e+03 3.162277660168379191e-06
1.466245792684105936e+03 5.623413251903491208e-06
1.514348127815332873e+03 1.000000000000000082e-05
1.572192292892130808e+03 1.778279410038922901e-05
1.637714221582309165e+03 3.162277660168379530e-05
1.706862751220349537e+03 5.623413251903490700e-05
1.778526804449776819e+03 1.000000000000000048e-04
1.855534457276045941e+03 1.778279410038922698e-04
1.939011705398382901e+03 3.162277660168379394e-04
2.032826495878562355e+03 5.623413251903490971e-04
2.145007547403232365e+03 1.000000000000000021e-03
2.273083422202217207e+03 1.778279410038922752e-03
2.407944743072222082e+03 3.162277660168379394e-03
2.546979292299143708e+03 5.623413251903490971e-03
2.691594343652464886e+03 1.000000000000000021e-02
2.843759846663906501e+03 1.778279410038922925e-02
3.006205234922279033e+03 3.162277660168379134e-02
3.183243155766797827e+03 5.623413251903491145e-02
3.384791222294722047e+03 1.000000000000000056e-01
3.584426282897752117e+03 1.778279410038922925e-01
3.815634184490055304e+03 3.162277660168379412e-01
4.090746661040914660e+03 5.623413251903490728e-01
4.418385103039495334e+03 1.000000000000000000e+00
4.863590126548891021e+03 1.778279410038922759e+00
5.539182087493697509e+03 3.162277660168379523e+00
6.581774087004021567e+03 5.623413251903491172e+00
8.085963749096139509e+03 1.000000000000000000e+01
9.855664512746287073e+03 1.778279410038922848e+01
1.000000000000000000e+04 3.162277660168379256e+01
1.000000000000000000e+04 5.623413251903490817e+01
1.000000000000000000e+04 1.000000000000000000e+02
1.000000000000000000e+04 1.778279410038922776e+02
1.000000000000000000e+04 3.162277660168379612e+02
