# Temperature (K), Pressure (bars)
9.995829160836046867e+02 9.999999999999999547e-07
1.048908037538345070e+03 1.778279410038922901e-06
1.098233158996551083e+03 3.162277660168379191e-06
1.150302612122559594e+03 5.623413251903491208e-06
1.206091563683613913e+03 1.000000000000000082e-05
1.263140957274867105e+03 1.778279410038922901e-05
1.320020394604823196e+03 3.162277660168379530e-05
1.384296378666157352e+03 5.623413251903490700e-05
1.458159773464601813e+03 1.000000000000000048e-04
1.541093908257222211e+03 1.778279410038922698e-04
1.637118321698989575e+03 3.162277660168379394e-04
1.732630095938098066e+03 5.623413251903490971e-04
1.819561112439620956e+03 1.000000000000000021e-03
1.904765211832756904e+03 1.778279410038922752e-03
1.999096374423891120e+03 3.162277660168379394e-03
2.119920807843991497e+03 5.623413251903490971e-03
2.265439519362278588e+03 1.000000000000000021e-02
2.418146524285749365e+03 1.778279410038922925e-02
2.571847009658858951e+03 3.162277660168379134e-02
2.729045502816158660e+03 5.623413251903491145e-02
2.892015280193347280e+03 1.000000000000000056e-01
3.062580894460353193e+03 1.778279410038922925e-01
3.241729447416027142e+03 3.162277660168379412e-01
3.430395588492489424e+03 5.623413251903490728e-01
3.631205776306121152e+03 1.000000000000000000e+00
3.848824720202152093e+03 1.778279410038922759e+00
4.089262882214500678e+03 3.162277660168379523e+00
4.360015117524469133e+03 5.623413251903491172e+00
4.671140590099859764e+03 1.000000000000000000e+01
5.037733683212807591e+03 1.778279410038922848e+01
5.480778639828805353e+03 3.162277660168379256e+01
6.032864571642568990e+03 5.623413251903490817e+01
6.748188337648822198e+03 1.000000000000000000e+02
7.722015256919096828e+03 1.778279410038922776e+02
9.097668305398588927e+03 3.162277660168379612e+02
