# Temperature (K), Pressure (bars)
1.025495380996512949e+03 5.623413251903490700e-05
1.072656286338482460e+03 1.000000000000000048e-04
1.119817201491194055e+03 1.778279410038922698e-04
1.196876472980967264e+03 3.162277660168379394e-04
1.303605345743186035e+03 5.623413251903490971e-04
1.447175902672191114e+03 1.000000000000000021e-03
1.587106518454967954e+03 1.778279410038922752e-03
1.677703900443193334e+03 3.162277660168379394e-03
1.734566163177470344e+03 5.623413251903490971e-03
1.780571231276783237e+03 1.000000000000000021e-02
1.820677559446394753e+03 1.778279410038922925e-02
1.854971310607391615e+03 3.162277660168379134e-02
1.887572290733702857e+03 5.623413251903491145e-02
1.925032592305128674e+03 1.000000000000000056e-01
1.973132774889297252e+03 1.778279410038922925e-01
2.034306157344661187e+03 3.162277660168379412e-01
2.114461258625473874e+03 5.623413251903490728e-01
2.214798676736035759e+03 1.000000000000000000e+00
2.377152956731880295e+03 1.778279410038922759e+00
2.635100862441688605e+03 3.162277660168379523e+00
2.911855188375490798e+03 5.623413251903491172e+00
3.165186743241341446e+03 1.000000000000000000e+01
3.420636774246311234e+03 1.778279410038922848e+01
3.687878834458084839e+03 3.162277660168379256e+01
3.973704200652583495e+03 5.623413251903490817e+01
4.285078980374467392e+03 1.000000000000000000e+02
4.625502803557079460e+03 1.778279410038922776e+02
5.011942736853910901e+03 3.162277660168379612e+02
