# Temperature (K), Pressure (bars)
7.632045911704288983e+02 3.162277660168379394e-04
8.089622918192534371e+02 5.623413251903490971e-04
8.547199934070403060e+02 1.000000000000000021e-03
8.995118751737136336e+02 1.778279410038922752e-03
9.442448661761683297e+02 3.162277660168379394e-03
9.913454881721568199e+02 5.623413251903490971e-03
1.044346724394366220e+03 1.000000000000000021e-02
1.106886819445284118e+03 1.778279410038922925e-02
1.185577256638364815e+03 3.162277660168379134e-02
1.285995336045006297e+03 5.623413251903491145e-02
1.428795519769826797e+03 1.000000000000000056e-01
1.634734819244924211e+03 1.778279410038922925e-01
1.883211460626423104e+03 3.162277660168379412e-01
2.147309439480489345e+03 5.623413251903490728e-01
2.409609327127117467e+03 1.000000000000000000e+00
2.657773468109763144e+03 1.778279410038922759e+00
2.894178831579497000e+03 3.162277660168379523e+00
3.126066950525048469e+03 5.623413251903491172e+00
3.361279836088729098e+03 1.000000000000000000e+01
3.606890394418589494e+03 1.778279410038922848e+01
3.871471632013859562e+03 3.162277660168379256e+01
4.159505482008115905e+03 5.623413251903490817e+01
4.477634327257251243e+03 1.000000000000000000e+02
4.828718225790078577e+03 1.778279410038922776e+02
5.232066912331950334e+03 3.162277660168379612e+02
