# Temperature (K), Pressure (bars)
2.396575614585065523e+03 9.999999999999999547e-07
2.408614802673174836e+03 1.778279410038922901e-06
2.420653990761285058e+03 3.162277660168379191e-06
2.440809966727268602e+03 5.623413251903491208e-06
2.469334859095031788e+03 1.000000000000000082e-05
2.501532072343725304e+03 1.778279410038922901e-05
2.534686626622548829e+03 3.162277660168379530e-05
2.569089018652429786e+03 5.623413251903490700e-05
2.604366588493926884e+03 1.000000000000000048e-04
2.639952409288815488e+03 1.778279410038922698e-04
2.674539374849794967e+03 3.162277660168379394e-04
2.704380123487732362e+03 5.623413251903490971e-04
2.724117917057906197e+03 1.000000000000000021e-03
2.734432450391880593e+03 1.778279410038922752e-03
2.747002827221635471e+03 3.162277660168379394e-03
2.775479254240409318e+03 5.623413251903490971e-03
2.822811044954126828e+03 1.000000000000000021e-02
2.887496426025921664e+03 1.778279410038922925e-02
2.959588324929539795e+03 3.162277660168379134e-02
3.046857307569483055e+03 5.623413251903491145e-02
3.177680991743768118e+03 1.000000000000000056e-01
3.340617420337732710e+03 1.778279410038922925e-01
3.521853616492944639e+03 3.162277660168379412e-01
3.732058075318576812e+03 5.623413251903490728e-01
3.978071312979138384e+03 1.000000000000000000e+00
4.269365193881711093e+03 1.778279410038922759e+00
4.591678024909545456e+03 3.162277660168379523e+00
4.995134679517538643e+03 5.623413251903491172e+00
5.532812682285646588e+03 1.000000000000000000e+01
6.313804761041886195e+03 1.778279410038922848e+01
7.506415550324753895e+03 3.162277660168379256e+01
9.166265422148742800e+03 5.623413251903490817e+01
1.000000000000000000e+04 1.000000000000000000e+02
1.000000000000000000e+04 1.778279410038922776e+02
1.000000000000000000e+04 3.162277660168379612e+02
