# Temperature (K), Pressure (bars)
1.266229719833620038e+03 9.999999999999999547e-07
1.271307061987960878e+03 1.778279410038922901e-06
1.276384404144574546e+03 3.162277660168379191e-06
1.291710017345801589e+03 5.623413251903491208e-06
1.318292480026740577e+03 1.000000000000000082e-05
1.351640932667242168e+03 1.778279410038922901e-05
1.390641547493024063e+03 3.162277660168379530e-05
1.434973689335264226e+03 5.623413251903490700e-05
1.492005689997448371e+03 1.000000000000000048e-04
1.567053949986315274e+03 1.778279410038922698e-04
1.641236146742049414e+03 3.162277660168379394e-04
1.700623776517719762e+03 5.623413251903490971e-04
1.754674120392714030e+03 1.000000000000000021e-03
1.813009034401261033e+03 1.778279410038922752e-03
1.874239446724115169e+03 3.162277660168379394e-03
1.936829534396178815e+03 5.623413251903490971e-03
2.006351696136645387e+03 1.000000000000000021e-02
2.084991163005971430e+03 1.778279410038922925e-02
2.184023287059698760e+03 3.162277660168379134e-02
2.322671509795199199e+03 5.623413251903491145e-02
2.487722203724570136e+03 1.000000000000000056e-01
2.656236363082233765e+03 1.778279410038922925e-01
2.826759432036483759e+03 3.162277660168379412e-01
3.003235558120847600e+03 5.623413251903490728e-01
3.188250429991800956e+03 1.000000000000000000e+00
3.383400141489668385e+03 1.778279410038922759e+00
3.590765436873557974e+03 3.162277660168379523e+00
3.813980703917808114e+03 5.623413251903491172e+00
4.057963106552012050e+03 1.000000000000000000e+01
4.328607267252677957e+03 1.778279410038922848e+01
4.633120590576510040e+03 3.162277660168379256e+01
4.981109709486569045e+03 5.623413251903490817e+01
5.389632462082860911e+03 1.000000000000000000e+02
5.871918117453602463e+03 1.778279410038922776e+02
6.452688780590708120e+03 3.162277660168379612e+02
