# Temperature (K), Pressure (bars)
7.392645832280001059e+02 3.162277660168379394e-04
7.794940972957468830e+02 5.623413251903490971e-04
8.197236123241829091e+02 1.000000000000000021e-03
8.588155084681843618e+02 1.778279410038922752e-03
8.980328792425689244e+02 3.162277660168379394e-03
9.382363214212468847e+02 5.623413251903490971e-03
9.805153187101535650e+02 1.000000000000000021e-02
1.027696486305521603e+03 1.778279410038922925e-02
1.083828395595543043e+03 3.162277660168379134e-02
1.154389646934123675e+03 5.623413251903491145e-02
1.246584975873403891e+03 1.000000000000000056e-01
1.371797788118199605e+03 1.778279410038922925e-01
1.555367842132923897e+03 3.162277660168379412e-01
1.802271046031408105e+03 5.623413251903490728e-01
2.075738687632186156e+03 1.000000000000000000e+00
2.349715433143886457e+03 1.778279410038922759e+00
2.617354565509184795e+03 3.162277660168379523e+00
2.875194199023147121e+03 5.623413251903491172e+00
3.127891673354421528e+03 1.000000000000000000e+01
3.383045401705224776e+03 1.778279410038922848e+01
3.650311924258704948e+03 3.162277660168379256e+01
3.935337782023593718e+03 5.623413251903490817e+01
4.245012501661450187e+03 1.000000000000000000e+02
4.582636184040675289e+03 1.778279410038922776e+02
4.965253501056929963e+03 3.162277660168379612e+02
