# Temperature (K), Pressure (bars)
1.751068600007323539e+03 9.999999999999999547e-07
1.828769965894479583e+03 1.778279410038922901e-06
1.906471331781635627e+03 3.162277660168379191e-06
1.972095271090999404e+03 5.623413251903491208e-06
2.026441432662002853e+03 1.000000000000000082e-05
2.071522847530295167e+03 1.778279410038922901e-05
2.109271005788921229e+03 3.162277660168379530e-05
2.143625236773626057e+03 5.623413251903490700e-05
2.177337535117846983e+03 1.000000000000000048e-04
2.212471431727984964e+03 1.778279410038922698e-04
2.251323658069571138e+03 3.162277660168379394e-04
2.296059124090884779e+03 5.623413251903490971e-04
2.348587559693894491e+03 1.000000000000000021e-03
2.409442241535640278e+03 1.778279410038922752e-03
2.478688971686495279e+03 3.162277660168379394e-03
2.551114892654781670e+03 5.623413251903490971e-03
2.630123580700175353e+03 1.000000000000000021e-02
2.733456525373234854e+03 1.778279410038922925e-02
2.862300715563678750e+03 3.162277660168379134e-02
3.010716977031419447e+03 5.623413251903491145e-02
3.180730839243749870e+03 1.000000000000000056e-01
3.372461249396856147e+03 1.778279410038922925e-01
3.585478499771261340e+03 3.162277660168379412e-01
3.822356470812085263e+03 5.623413251903490728e-01
4.091817029427165835e+03 1.000000000000000000e+00
4.393760058076298264e+03 1.778279410038922759e+00
4.761286128468396782e+03 3.162277660168379523e+00
5.245955026873383758e+03 5.623413251903491172e+00
5.936255244705487712e+03 1.000000000000000000e+01
6.984129368816852548e+03 1.778279410038922848e+01
8.519984899409346326e+03 3.162277660168379256e+01
1.000000000000000000e+04 5.623413251903490817e+01
1.000000000000000000e+04 1.000000000000000000e+02
1.000000000000000000e+04 1.778279410038922776e+02
1.000000000000000000e+04 3.162277660168379612e+02
