# Temperature (K), Pressure (bars)
7.337741602974482475e+02 3.162277660168379394e-04
7.741337527448788478e+02 5.623413251903490971e-04
8.144933462138133109e+02 1.000000000000000021e-03
8.536795099749770088e+02 1.778279410038922752e-03
8.929745167980446467e+02 3.162277660168379394e-03
9.333439567659330578e+02 5.623413251903490971e-03
9.758437423814743852e+02 1.000000000000000021e-02
1.023135774018580605e+03 1.778279410038922925e-02
1.079313388738120466e+03 3.162277660168379134e-02
1.149725362630015525e+03 5.623413251903491145e-02
1.241925960172456826e+03 1.000000000000000056e-01
1.366029288019068417e+03 1.778279410038922925e-01
1.545368267159537936e+03 3.162277660168379412e-01
1.787621692722365196e+03 5.623413251903490728e-01
2.059006509552756143e+03 1.000000000000000000e+00
2.333302575990166588e+03 1.778279410038922759e+00
2.602389206989684681e+03 3.162277660168379523e+00
2.861667739242902826e+03 5.623413251903491172e+00
3.115471134412920037e+03 1.000000000000000000e+01
3.371282729796416788e+03 1.778279410038922848e+01
3.638721635678850362e+03 3.162277660168379256e+01
3.923576269248718290e+03 5.623413251903490817e+01
4.232763515776990971e+03 1.000000000000000000e+02
4.569417649929708205e+03 1.778279410038922776e+02
4.950697834393823541e+03 3.162277660168379612e+02
