# Temperature (K), Pressure (bars)
1.430474083475771295e+03 1.778279410038922901e-06
1.455746649135765210e+03 3.162277660168379191e-06
1.481103358932468609e+03 5.623413251903491208e-06
1.521676143931180832e+03 1.000000000000000082e-05
1.572347316587246496e+03 1.778279410038922901e-05
1.624760273384765924e+03 3.162277660168379530e-05
1.681183060645490514e+03 5.623413251903490700e-05
1.748804753977524342e+03 1.000000000000000048e-04
1.809926155799399339e+03 1.778279410038922698e-04
1.854011630133881226e+03 3.162277660168379394e-04
1.892632092801647104e+03 5.623413251903490971e-04
1.928878603315503369e+03 1.000000000000000021e-03
1.962245317104658625e+03 1.778279410038922752e-03
1.994959639862452605e+03 3.162277660168379394e-03
2.028762133802702920e+03 5.623413251903490971e-03
2.065825884791345288e+03 1.000000000000000021e-02
2.107640957076370796e+03 1.778279410038922925e-02
2.160574801677434152e+03 3.162277660168379134e-02
2.222667433270856236e+03 5.623413251903491145e-02
2.315678857372429320e+03 1.000000000000000056e-01
2.473729027037592004e+03 1.778279410038922925e-01
2.660991420195472529e+03 3.162277660168379412e-01
2.844989406075640545e+03 5.623413251903490728e-01
3.034485670468853641e+03 1.000000000000000000e+00
3.231626570206289671e+03 1.778279410038922759e+00
3.437925450837046355e+03 3.162277660168379523e+00
3.656636831798039566e+03 5.623413251903491172e+00
3.892494951890497759e+03 1.000000000000000000e+01
4.150966239337378283e+03 1.778279410038922848e+01
4.438340970917390223e+03 3.162277660168379256e+01
4.762674239600245528e+03 5.623413251903490817e+01
5.138670339200281887e+03 1.000000000000000000e+02
5.575833973263353073e+03 1.778279410038922776e+02
6.092647422929871937e+03 3.162277660168379612e+02
