# Temperature (K), Pressure (bars)
1.661228146207412919e+03 9.999999999999999547e-07
1.684886666688568766e+03 1.778279410038922901e-06
1.708545187169724386e+03 3.162277660168379191e-06
1.737640078028140806e+03 5.623413251903491208e-06
1.771711276295867947e+03 1.000000000000000082e-05
1.812409591745216858e+03 1.778279410038922901e-05
1.858133700378085223e+03 3.162277660168379530e-05
1.906574719206273812e+03 5.623413251903490700e-05
1.957840995764413037e+03 1.000000000000000048e-04
2.012390039096486817e+03 1.778279410038922698e-04
2.070609582625293569e+03 3.162277660168379394e-04
2.132903562406679612e+03 5.623413251903490971e-04
2.200756675689533495e+03 1.000000000000000021e-03
2.280970181364419659e+03 1.778279410038922752e-03
2.379725780855364974e+03 3.162277660168379394e-03
2.491653357460971165e+03 5.623413251903490971e-03
2.611585013966202496e+03 1.000000000000000021e-02
2.740336083649071043e+03 1.778279410038922925e-02
2.879053852164434375e+03 3.162277660168379134e-02
3.029667275831109691e+03 5.623413251903491145e-02
3.195142048742912721e+03 1.000000000000000056e-01
3.379227125173869808e+03 1.778279410038922925e-01
3.585711264642789502e+03 3.162277660168379412e-01
3.818819435740208519e+03 5.623413251903490728e-01
4.086210845015489667e+03 1.000000000000000000e+00
4.389140496415648158e+03 1.778279410038922759e+00
4.754829893558069671e+03 3.162277660168379523e+00
5.238154350905754654e+03 5.623413251903491172e+00
5.929453250506636323e+03 1.000000000000000000e+01
6.978400200880352713e+03 1.778279410038922848e+01
8.513370977665395912e+03 3.162277660168379256e+01
1.000000000000000000e+04 5.623413251903490817e+01
1.000000000000000000e+04 1.000000000000000000e+02
1.000000000000000000e+04 1.778279410038922776e+02
1.000000000000000000e+04 3.162277660168379612e+02
