# Temperature (K), Pressure (bars)
1.397805296116615182e+03 9.999999999999999547e-07
1.404208773267001106e+03 1.778279410038922901e-06
1.410612250418607800e+03 3.162277660168379191e-06
1.422942605940531848e+03 5.623413251903491208e-06
1.441848591438439144e+03 1.000000000000000082e-05
1.467705981106701074e+03 1.778279410038922901e-05
1.506612837220113306e+03 3.162277660168379530e-05
1.562270942001054209e+03 5.623413251903490700e-05
1.624655384545562811e+03 1.000000000000000048e-04
1.682456097400573526e+03 1.778279410038922698e-04
1.738432729672586220e+03 3.162277660168379394e-04
1.798338662179078938e+03 5.623413251903490971e-04
1.861769918491287626e+03 1.000000000000000021e-03
1.927391985921697142e+03 1.778279410038922752e-03
1.997418991200568598e+03 3.162277660168379394e-03
2.072736384759741668e+03 5.623413251903490971e-03
2.161945460055544117e+03 1.000000000000000021e-02
2.281524253665485958e+03 1.778279410038922925e-02
2.423910830519175761e+03 3.162277660168379134e-02
2.571900191801294568e+03 5.623413251903491145e-02
2.723467596890641289e+03 1.000000000000000056e-01
2.881223021070257801e+03 1.778279410038922925e-01
3.047545462235062587e+03 3.162277660168379412e-01
3.224486396004774178e+03 5.623413251903490728e-01
3.413515100128410268e+03 1.000000000000000000e+00
3.616157008886812946e+03 1.778279410038922759e+00
3.835360760893471706e+03 3.162277660168379523e+00
4.075919095520443534e+03 5.623413251903491172e+00
4.344125705675029167e+03 1.000000000000000000e+01
4.647992682247664561e+03 1.778279410038922848e+01
4.998511850797065563e+03 3.162277660168379256e+01
5.413997197941231207e+03 5.623413251903490817e+01
5.913461523443054830e+03 1.000000000000000000e+02
6.529786399671337676e+03 1.778279410038922776e+02
7.314727584871815452e+03 3.162277660168379612e+02
