# Temperature (K), Pressure (bars)
2.109380265389087072e+03 9.999999999999999547e-07
2.116385423003430788e+03 1.778279410038922901e-06
2.123390580617774958e+03 3.162277660168379191e-06
2.140711261519704294e+03 5.623413251903491208e-06
2.163460189755548981e+03 1.000000000000000082e-05
2.189237202889153195e+03 1.778279410038922901e-05
2.219831351856660149e+03 3.162277660168379530e-05
2.255527218819212067e+03 5.623413251903490700e-05
2.296699135447460776e+03 1.000000000000000048e-04
2.342083113051052351e+03 1.778279410038922698e-04
2.388382762010630813e+03 3.162277660168379394e-04
2.433020858707790467e+03 5.623413251903490971e-04
2.474740039056702699e+03 1.000000000000000021e-03
2.511820102484492963e+03 1.778279410038922752e-03
2.544115370140984396e+03 3.162277660168379394e-03
2.573144916027125419e+03 5.623413251903490971e-03
2.605141262165779153e+03 1.000000000000000021e-02
2.643093449149456774e+03 1.778279410038922925e-02
2.701046750163243360e+03 3.162277660168379134e-02
2.802433006960302464e+03 5.623413251903491145e-02
2.935217543161028516e+03 1.000000000000000056e-01
3.081709739250909024e+03 1.778279410038922925e-01
3.244532728393107391e+03 3.162277660168379412e-01
3.426250922524855923e+03 5.623413251903490728e-01
3.628136493922293994e+03 1.000000000000000000e+00
3.851138720218740218e+03 1.778279410038922759e+00
4.098292749877335154e+03 3.162277660168379523e+00
4.376148609048526851e+03 5.623413251903491172e+00
4.695030616105437730e+03 1.000000000000000000e+01
5.067819572704526763e+03 1.778279410038922848e+01
5.520840698547357533e+03 3.162277660168379256e+01
6.091615693807589196e+03 5.623413251903490817e+01
6.845678608442464792e+03 1.000000000000000000e+02
7.893000793605681793e+03 1.778279410038922776e+02
9.369632487194969144e+03 3.162277660168379612e+02
