# Temperature (K), Pressure (bars)
1.891848997654517689e+03 5.623413251903491208e-06
1.896151176633924933e+03 1.000000000000000082e-05
1.901232603297682772e+03 1.778279410038922901e-05
1.909512062380782936e+03 3.162277660168379530e-05
1.921506403912095720e+03 5.623413251903490700e-05
1.937572552018175884e+03 1.000000000000000048e-04
1.958336526049986787e+03 1.778279410038922698e-04
1.984861197786816774e+03 3.162277660168379394e-04
2.018087591622443597e+03 5.623413251903490971e-04
2.056938926756810361e+03 1.000000000000000021e-03
2.099877723440603404e+03 1.778279410038922752e-03
2.147159168682240306e+03 3.162277660168379394e-03
2.198115081759645363e+03 5.623413251903490971e-03
2.255976390881311090e+03 1.000000000000000021e-02
2.318992363239280166e+03 1.778279410038922925e-02
2.400821503782950458e+03 3.162277660168379134e-02
2.525966313839063787e+03 5.623413251903491145e-02
2.673882050364782117e+03 1.000000000000000056e-01
2.824153513347566332e+03 1.778279410038922925e-01
2.982948728053593186e+03 3.162277660168379412e-01
3.153204341334776473e+03 5.623413251903490728e-01
3.337275369852540280e+03 1.000000000000000000e+00
3.536465892259999237e+03 1.778279410038922759e+00
3.752066277799798627e+03 3.162277660168379523e+00
3.987205512259840361e+03 5.623413251903491172e+00
4.247183724317632368e+03 1.000000000000000000e+01
4.539153453425509724e+03 1.778279410038922848e+01
4.872699869204885545e+03 3.162277660168379256e+01
5.263586669010689548e+03 5.623413251903490817e+01
5.727701921701921492e+03 1.000000000000000000e+02
6.291424962604901339e+03 1.778279410038922776e+02
6.995222379957011981e+03 3.162277660168379612e+02
