# Temperature (K), Pressure (bars)
2.231547723146193675e+03 3.162277660168379191e-06
2.244950541049307958e+03 5.623413251903491208e-06
2.258353380915472371e+03 1.000000000000000082e-05
2.283293249910044324e+03 1.778279410038922901e-05
2.312111453777911265e+03 3.162277660168379530e-05
2.349528349076816994e+03 5.623413251903490700e-05
2.400207116712921561e+03 1.000000000000000048e-04
2.462199168600074699e+03 1.778279410038922698e-04
2.535435881032984526e+03 3.162277660168379394e-04
2.619259917059615418e+03 5.623413251903490971e-04
2.713379524566367763e+03 1.000000000000000021e-03
2.815609291142107850e+03 1.778279410038922752e-03
2.920822422540316893e+03 3.162277660168379394e-03
3.021262932261674905e+03 5.623413251903490971e-03
3.110600199272679220e+03 1.000000000000000021e-02
3.182147190117575065e+03 1.778279410038922925e-02
3.241557459772389393e+03 3.162277660168379134e-02
3.271120828937930582e+03 5.623413251903491145e-02
3.312679713249392080e+03 1.000000000000000056e-01
3.463602810474179023e+03 1.778279410038922925e-01
3.664016999056332679e+03 3.162277660168379412e-01
3.891542844320243603e+03 5.623413251903490728e-01
4.163846366328029944e+03 1.000000000000000000e+00
4.480937452652275169e+03 1.778279410038922759e+00
4.888455123397590796e+03 3.162277660168379523e+00
5.458965588397010833e+03 5.623413251903491172e+00
6.342580373604913802e+03 1.000000000000000000e+01
7.693270680050360170e+03 1.778279410038922848e+01
9.440149660547020176e+03 3.162277660168379256e+01
1.000000000000000000e+04 5.623413251903490817e+01
1.000000000000000000e+04 1.000000000000000000e+02
1.000000000000000000e+04 1.778279410038922776e+02
1.000000000000000000e+04 3.162277660168379612e+02
