# Temperature (K), Pressure (bars)
2.426751066829388947e+03 3.162277660168379191e-06
2.437422443571735130e+03 5.623413251903491208e-06
2.448093831552735082e+03 1.000000000000000082e-05
2.468548292576655058e+03 1.778279410038922901e-05
2.498672966835960779e+03 3.162277660168379530e-05
2.533176088053810417e+03 5.623413251903490700e-05
2.570192487561863345e+03 1.000000000000000048e-04
2.610405425488804212e+03 1.778279410038922698e-04
2.654202835632870574e+03 3.162277660168379394e-04
2.701508034797620894e+03 5.623413251903490971e-04
2.752618930354832628e+03 1.000000000000000021e-03
2.808046161992568159e+03 1.778279410038922752e-03
2.866299180175562014e+03 3.162277660168379394e-03
2.923919658264924237e+03 5.623413251903490971e-03
2.977587864299984631e+03 1.000000000000000021e-02
3.026486658961899138e+03 1.778279410038922925e-02
3.073511277368800165e+03 3.162277660168379134e-02
3.124770915969605085e+03 5.623413251903491145e-02
3.186847096162834987e+03 1.000000000000000056e-01
3.289826925489087444e+03 1.778279410038922925e-01
3.455454736009140106e+03 3.162277660168379412e-01
3.655044693436298985e+03 5.623413251903490728e-01
3.876835984972391543e+03 1.000000000000000000e+00
4.136440707974675206e+03 1.778279410038922759e+00
4.443909044616386382e+03 3.162277660168379523e+00
4.792790709232742302e+03 5.623413251903491172e+00
5.229656206860791826e+03 1.000000000000000000e+01
5.810099362771534288e+03 1.778279410038922848e+01
6.642747631198123599e+03 3.162277660168379256e+01
7.887487046322440619e+03 5.623413251903490817e+01
9.602958626083041963e+03 1.000000000000000000e+02
1.000000000000000000e+04 1.778279410038922776e+02
1.000000000000000000e+04 3.162277660168379612e+02
