# Temperature (K), Pressure (bars)
2.504106975701494775e+03 9.999999999999999547e-07
2.513365447383077935e+03 1.778279410038922901e-06
2.522623919064660640e+03 3.162277660168379191e-06
2.543477721337964340e+03 5.623413251903491208e-06
2.572638013353169299e+03 1.000000000000000082e-05
2.604328206373985267e+03 1.778279410038922901e-05
2.637922321241619557e+03 3.162277660168379530e-05
2.673230466789740149e+03 5.623413251903490700e-05
2.710208548071459973e+03 1.000000000000000048e-04
2.749015446571096618e+03 1.778279410038922698e-04
2.789626283933674131e+03 3.162277660168379394e-04
2.831314136845877329e+03 5.623413251903490971e-04
2.871487175440982810e+03 1.000000000000000021e-03
2.906015628226795798e+03 1.778279410038922752e-03
2.931591873493091953e+03 3.162277660168379394e-03
2.951136884764930528e+03 5.623413251903490971e-03
2.975971565920257490e+03 1.000000000000000021e-02
3.017504462926247925e+03 1.778279410038922925e-02
3.081283197028729319e+03 3.162277660168379134e-02
3.166364584900491536e+03 5.623413251903491145e-02
3.284174229743669457e+03 1.000000000000000056e-01
3.448436308986865697e+03 1.778279410038922925e-01
3.647045251257050495e+03 3.162277660168379412e-01
3.868383140334435211e+03 5.623413251903490728e-01
4.130951878732922523e+03 1.000000000000000000e+00
4.436480127575780898e+03 1.778279410038922759e+00
4.822393231124831800e+03 3.162277660168379523e+00
5.347252318855655176e+03 5.623413251903491172e+00
6.134602965765516274e+03 1.000000000000000000e+01
7.361395344901542558e+03 1.778279410038922848e+01
9.031471790757956114e+03 3.162277660168379256e+01
1.000000000000000000e+04 5.623413251903490817e+01
1.000000000000000000e+04 1.000000000000000000e+02
1.000000000000000000e+04 1.778279410038922776e+02
1.000000000000000000e+04 3.162277660168379612e+02
