# Temperature (K), Pressure (bars)
1.977482311129197114e+03 9.999999999999999547e-07
2.006965205100633284e+03 1.778279410038922901e-06
2.036448099074198581e+03 3.162277660168379191e-06
2.073092718443067952e+03 5.623413251903491208e-06
2.114855648957416179e+03 1.000000000000000082e-05
2.158718391073475686e+03 1.778279410038922901e-05
2.201882060633625315e+03 3.162277660168379530e-05
2.241480274381527124e+03 5.623413251903490700e-05
2.276975669284378455e+03 1.000000000000000048e-04
2.309128229651817492e+03 1.778279410038922698e-04
2.339044042067017472e+03 3.162277660168379394e-04
2.368365629348187213e+03 5.623413251903490971e-04
2.399096733648318150e+03 1.000000000000000021e-03
2.433595626346643712e+03 1.778279410038922752e-03
2.473532758429944806e+03 3.162277660168379394e-03
2.522097343171606553e+03 5.623413251903490971e-03
2.579118840688668115e+03 1.000000000000000021e-02
2.651450034713861896e+03 1.778279410038922925e-02
2.754582812464796461e+03 3.162277660168379134e-02
2.883041217446609608e+03 5.623413251903491145e-02
3.026995388367479791e+03 1.000000000000000056e-01
3.188866873854483856e+03 1.778279410038922925e-01
3.370245913823515821e+03 3.162277660168379412e-01
3.571220253060515915e+03 5.623413251903490728e-01
3.792431978864985467e+03 1.000000000000000000e+00
4.037645144679013356e+03 1.778279410038922759e+00
4.314772835052402115e+03 3.162277660168379523e+00
4.636500820291103082e+03 5.623413251903491172e+00
5.016153046626391188e+03 1.000000000000000000e+01
5.491187741457893026e+03 1.778279410038922848e+01
6.116787987152833921e+03 3.162277660168379256e+01
6.995543501337720954e+03 5.623413251903490817e+01
8.285390584773069349e+03 1.000000000000000000e+02
1.005039557919545769e+04 1.778279410038922776e+02
1.219216204747667689e+04 3.162277660168379612e+02
