# Temperature (K), Pressure (bars)
1.096449348130048065e+03 1.000000000000000048e-04
1.140490658963441774e+03 1.778279410038922698e-04
1.184531972233586202e+03 3.162277660168379394e-04
1.231800017029068613e+03 5.623413251903490971e-04
1.283173164028989277e+03 1.000000000000000021e-03
1.340670995624172292e+03 1.778279410038922752e-03
1.402548597250900457e+03 3.162277660168379394e-03
1.470810786041450910e+03 5.623413251903490971e-03
1.553394234830272808e+03 1.000000000000000021e-02
1.637417077370956349e+03 1.778279410038922925e-02
1.713401956917354482e+03 3.162277660168379134e-02
1.791567194778699786e+03 5.623413251903491145e-02
1.886004863714940484e+03 1.000000000000000056e-01
1.998151893789073256e+03 1.778279410038922925e-01
2.149210864019034034e+03 3.162277660168379412e-01
2.366297397646373611e+03 5.623413251903490728e-01
2.604385616695321914e+03 1.000000000000000000e+00
2.828160302235491145e+03 1.778279410038922759e+00
3.049175993819976156e+03 3.162277660168379523e+00
3.273343360544004099e+03 5.623413251903491172e+00
3.505742743841191896e+03 1.000000000000000000e+01
3.751969349653089921e+03 1.778279410038922848e+01
4.019707047604862964e+03 3.162277660168379256e+01
4.314452894638888210e+03 5.623413251903490817e+01
4.643292731775558423e+03 1.000000000000000000e+02
5.009542333496936408e+03 1.778279410038922776e+02
5.434355538994601375e+03 3.162277660168379612e+02
