# Temperature (K), Pressure (bars)
1.283472245340498148e+03 5.623413251903490700e-05
1.318701167954220409e+03 1.000000000000000048e-04
1.353930092983559689e+03 1.778279410038922698e-04
1.390878009524060872e+03 3.162277660168379394e-04
1.432228353080727402e+03 5.623413251903490971e-04
1.478345398224574183e+03 1.000000000000000021e-03
1.536978301039507414e+03 1.778279410038922752e-03
1.614120125500709037e+03 3.162277660168379394e-03
1.690248755999693913e+03 5.623413251903490971e-03
1.754259396247873610e+03 1.000000000000000021e-02
1.816967612343967858e+03 1.778279410038922925e-02
1.883519734434053134e+03 3.162277660168379134e-02
1.955287627883522418e+03 5.623413251903491145e-02
2.041505366980783265e+03 1.000000000000000056e-01
2.144569850077160027e+03 1.778279410038922925e-01
2.283146182182581015e+03 3.162277660168379412e-01
2.480148841295598686e+03 5.623413251903490728e-01
2.699188202058106981e+03 1.000000000000000000e+00
2.910898807842799670e+03 1.778279410038922759e+00
3.124382660687402677e+03 3.162277660168379523e+00
3.344843140306491023e+03 5.623413251903491172e+00
3.576386918342734589e+03 1.000000000000000000e+01
3.823646597002462386e+03 1.778279410038922848e+01
4.093758318575282829e+03 3.162277660168379256e+01
4.392583124012237931e+03 5.623413251903490817e+01
4.727498836843237768e+03 1.000000000000000000e+02
5.102233901290114773e+03 1.778279410038922776e+02
5.538637020472589938e+03 3.162277660168379612e+02
