# Temperature (K), Pressure (bars)
1.947050913354973545e+03 9.999999999999999547e-07
1.988077664866115583e+03 1.778279410038922901e-06
2.029104416377257621e+03 3.162277660168379191e-06
2.072690944863857112e+03 5.623413251903491208e-06
2.118981549818156054e+03 1.000000000000000082e-05
2.167581735574542108e+03 1.778279410038922901e-05
2.218013259764112263e+03 3.162277660168379530e-05
2.271103815084669350e+03 5.623413251903490700e-05
2.328611661665025167e+03 1.000000000000000048e-04
2.391393042758850697e+03 1.778279410038922698e-04
2.460435948551752517e+03 3.162277660168379394e-04
2.537506658540144599e+03 5.623413251903490971e-04
2.624619365353793455e+03 1.000000000000000021e-03
2.723388276222025979e+03 1.778279410038922752e-03
2.834831321872871740e+03 3.162277660168379394e-03
2.959085593523101579e+03 5.623413251903490971e-03
3.096701323710784436e+03 1.000000000000000021e-02
3.249229351126401525e+03 1.778279410038922925e-02
3.426065581359685439e+03 3.162277660168379134e-02
3.662743846763677539e+03 5.623413251903491145e-02
3.994568107364299976e+03 1.000000000000000056e-01
4.557363833709457140e+03 1.778279410038922925e-01
5.513379970600371053e+03 3.162277660168379412e-01
6.851973425138085986e+03 5.623413251903490728e-01
8.366722008004371673e+03 1.000000000000000000e+00
9.788650481070186288e+03 1.778279410038922759e+00
1.127304187083898069e+04 3.162277660168379523e+00
1.311397274063619261e+04 5.623413251903491172e+00
1.545197582921478715e+04 1.000000000000000000e+01
1.841526510864666852e+04 1.778279410038922848e+01
2.215576042503154167e+04 3.162277660168379256e+01
2.684496538986797168e+04 5.623413251903490817e+01
3.266137696795841475e+04 1.000000000000000000e+02
3.976103534483087424e+04 1.778279410038922776e+02
4.823043171744428400e+04 3.162277660168379612e+02
