# Temperature (K), Pressure (bars)
1.252880444014965178e+03 9.999999999999999547e-07
1.282419319053474737e+03 1.778279410038922901e-06
1.311958194095705949e+03 3.162277660168379191e-06
1.345485560736169646e+03 5.623413251903491208e-06
1.384810465748431625e+03 1.000000000000000082e-05
1.430665321273138034e+03 1.778279410038922901e-05
1.483781942593926715e+03 3.162277660168379530e-05
1.547235632159432043e+03 5.623413251903490700e-05
1.620370159977571120e+03 1.000000000000000048e-04
1.695806766906445318e+03 1.778279410038922698e-04
1.771431136509683711e+03 3.162277660168379394e-04
1.852291464380248271e+03 5.623413251903490971e-04
1.941150847065253856e+03 1.000000000000000021e-03
2.046354653094422474e+03 1.778279410038922752e-03
2.175395643572568588e+03 3.162277660168379394e-03
2.316275190247918545e+03 5.623413251903490971e-03
2.458804538727364161e+03 1.000000000000000021e-02
2.604730487889246433e+03 1.778279410038922925e-02
2.756060083395608217e+03 3.162277660168379134e-02
2.914894339127002240e+03 5.623413251903491145e-02
3.083472626528979163e+03 1.000000000000000056e-01
3.263840974752553393e+03 1.778279410038922925e-01
3.457573444793961244e+03 3.162277660168379412e-01
3.666924979814813923e+03 5.623413251903490728e-01
3.896899102314229822e+03 1.000000000000000000e+00
4.155737947771093786e+03 1.778279410038922759e+00
4.455682601970745964e+03 3.162277660168379523e+00
4.807816331317210825e+03 5.623413251903491172e+00
5.250480005986029937e+03 1.000000000000000000e+01
5.840707153360928714e+03 1.778279410038922848e+01
6.686404196236709140e+03 3.162277660168379256e+01
7.952463228945682204e+03 5.623413251903490817e+01
9.688750655669718981e+03 1.000000000000000000e+02
1.180050612375494347e+04 1.778279410038922776e+02
1.431543695649738220e+04 3.162277660168379612e+02
