# Temperature (K), Pressure (bars)
9.514360404501875337e+02 3.162277660168379394e-04
9.964466910633686894e+02 5.623413251903490971e-04
1.041457342797907813e+03 1.000000000000000021e-03
1.087548479088951808e+03 1.778279410038922752e-03
1.135379259504562242e+03 3.162277660168379394e-03
1.184963010783742675e+03 5.623413251903490971e-03
1.237048292345517666e+03 1.000000000000000021e-02
1.291858070746361136e+03 1.778279410038922925e-02
1.357200837080318706e+03 3.162277660168379134e-02
1.450755194908346539e+03 5.623413251903491145e-02
1.591537012322688042e+03 1.000000000000000056e-01
1.769435267398446967e+03 1.778279410038922925e-01
1.979271244671122076e+03 3.162277660168379412e-01
2.233850114134676915e+03 5.623413251903490728e-01
2.493682641377460186e+03 1.000000000000000000e+00
2.731399972145010452e+03 1.778279410038922759e+00
2.961149934956302786e+03 3.162277660168379523e+00
3.189958601838532104e+03 5.623413251903491172e+00
3.424194648544896609e+03 1.000000000000000000e+01
3.670205980573881334e+03 1.778279410038922848e+01
3.936185274457415744e+03 3.162277660168379256e+01
4.227276929767876027e+03 5.623413251903490817e+01
4.550319624040829694e+03 1.000000000000000000e+02
4.908746081458088156e+03 1.778279410038922776e+02
5.321895751038994604e+03 3.162277660168379612e+02
