# Temperature (K), Pressure (bars)
1.023595050209400370e+03 9.999999999999999547e-07
1.040349833451137556e+03 1.778279410038922901e-06
1.057104616719571368e+03 3.162277660168379191e-06
1.079063621056941429e+03 5.623413251903491208e-06
1.107901372319082839e+03 1.000000000000000082e-05
1.141351157173744468e+03 1.778279410038922901e-05
1.178615517225168787e+03 3.162277660168379530e-05
1.220779578554109321e+03 5.623413251903490700e-05
1.267356365997778084e+03 1.000000000000000048e-04
1.319127502341900708e+03 1.778279410038922698e-04
1.378296212315456842e+03 3.162277660168379394e-04
1.445709917538085392e+03 5.623413251903490971e-04
1.521143241362285380e+03 1.000000000000000021e-03
1.607660706987308231e+03 1.778279410038922752e-03
1.706796703281504051e+03 3.162277660168379394e-03
1.811852069883518880e+03 5.623413251903490971e-03
1.921730093045593094e+03 1.000000000000000021e-02
2.060584551559825741e+03 1.778279410038922925e-02
2.238035574355921199e+03 3.162277660168379134e-02
2.421174469092409709e+03 5.623413251903491145e-02
2.594071557461898010e+03 1.000000000000000056e-01
2.765519788438217802e+03 1.778279410038922925e-01
2.939608424224776172e+03 3.162277660168379412e-01
3.118844183058760791e+03 5.623413251903490728e-01
3.305109603702383083e+03 1.000000000000000000e+00
3.501111064802644705e+03 1.778279410038922759e+00
3.710919022855136063e+03 3.162277660168379523e+00
3.939368737961484840e+03 5.623413251903491172e+00
4.191907546242668104e+03 1.000000000000000000e+01
4.475114391175455239e+03 1.778279410038922848e+01
4.797712586270487009e+03 3.162277660168379256e+01
5.175029608630007715e+03 5.623413251903490817e+01
5.619585505849962829e+03 1.000000000000000000e+02
6.153689231590416966e+03 1.778279410038922776e+02
6.811264153076158436e+03 3.162277660168379612e+02
