# Temperature (K), Pressure (bars)
1.581765763834538120e+03 9.999999999999999547e-07
1.589637447031335341e+03 1.778279410038922901e-06
1.597509130276953783e+03 3.162277660168379191e-06
1.612929002188894628e+03 5.623413251903491208e-06
1.637134292156933952e+03 1.000000000000000082e-05
1.662828661581046617e+03 1.778279410038922901e-05
1.697321937373476430e+03 3.162277660168379530e-05
1.761913009363603351e+03 5.623413251903490700e-05
1.828938767921044928e+03 1.000000000000000048e-04
1.875745322486265422e+03 1.778279410038922698e-04
1.918672396183202181e+03 3.162277660168379394e-04
1.959993920668276814e+03 5.623413251903490971e-04
1.997704510080762930e+03 1.000000000000000021e-03
2.033778807557492655e+03 1.778279410038922752e-03
2.067500957529414791e+03 3.162277660168379394e-03
2.099480194852079876e+03 5.623413251903490971e-03
2.132955541380650175e+03 1.000000000000000021e-02
2.169917455869412152e+03 1.778279410038922925e-02
2.217262437939865777e+03 3.162277660168379134e-02
2.274336570839421256e+03 5.623413251903491145e-02
2.366104705015822219e+03 1.000000000000000056e-01
2.525533335677667310e+03 1.778279410038922925e-01
2.710611018917436013e+03 3.162277660168379412e-01
2.890022558206565918e+03 5.623413251903490728e-01
3.076548949511332921e+03 1.000000000000000000e+00
3.272553107654816813e+03 1.778279410038922759e+00
3.479202781991738448e+03 3.162277660168379523e+00
3.699354221120880538e+03 5.623413251903491172e+00
3.937591640069604182e+03 1.000000000000000000e+01
4.199505352518683139e+03 1.778279410038922848e+01
4.491719559464275335e+03 3.162277660168379256e+01
4.822703903071474087e+03 5.623413251903490817e+01
5.207160610339441519e+03 1.000000000000000000e+02
5.656117655576269499e+03 1.778279410038922776e+02
6.189466471049397114e+03 3.162277660168379612e+02
