# Temperature (K), Pressure (bars)
2.372509945972253718e+03 9.999999999999999547e-07
2.393125640045373075e+03 1.778279410038922901e-06
2.413741334118491523e+03 3.162277660168379191e-06
2.443491405172431769e+03 5.623413251903491208e-06
2.475283017284288690e+03 1.000000000000000082e-05
2.506983543624614867e+03 1.778279410038922901e-05
2.540286151625401089e+03 3.162277660168379530e-05
2.573680763920578556e+03 5.623413251903490700e-05
2.605980657556610367e+03 1.000000000000000048e-04
2.634236384327280575e+03 1.778279410038922698e-04
2.654068100205585324e+03 3.162277660168379394e-04
2.665722087469915095e+03 5.623413251903490971e-04
2.679392025157520493e+03 1.000000000000000021e-03
2.708196996554826001e+03 1.778279410038922752e-03
2.757388019515088672e+03 3.162277660168379394e-03
2.824529618850835959e+03 5.623413251903490971e-03
2.907236023870981171e+03 1.000000000000000021e-02
3.002236144760915977e+03 1.778279410038922925e-02
3.111046823219344788e+03 3.162277660168379134e-02
3.246537425421680837e+03 5.623413251903491145e-02
3.415952730637345667e+03 1.000000000000000056e-01
3.612146814298776462e+03 1.778279410038922925e-01
3.848281472732917337e+03 3.162277660168379412e-01
4.118268849487275475e+03 5.623413251903490728e-01
4.462797138584148342e+03 1.000000000000000000e+00
4.945571037453682038e+03 1.778279410038922759e+00
5.710550586682321409e+03 3.162277660168379523e+00
6.933006999123438618e+03 5.623413251903491172e+00
8.550246146308658354e+03 1.000000000000000000e+01
1.000000000000000000e+04 1.778279410038922848e+01
1.000000000000000000e+04 3.162277660168379256e+01
1.000000000000000000e+04 5.623413251903490817e+01
1.000000000000000000e+04 1.000000000000000000e+02
1.000000000000000000e+04 1.778279410038922776e+02
1.000000000000000000e+04 3.162277660168379612e+02
