# Temperature (K), Pressure (bars)
2.256215147277876895e+03 1.778279410038922901e-06
2.269044560065151927e+03 3.162277660168379191e-06
2.281873974425165216e+03 5.623413251903491208e-06
2.301604402785756974e+03 1.000000000000000082e-05
2.328820388917435594e+03 1.778279410038922901e-05
2.363084800528857158e+03 3.162277660168379530e-05
2.402241689434309592e+03 5.623413251903490700e-05
2.448267878794311400e+03 1.000000000000000048e-04
2.502278926311120813e+03 1.778279410038922698e-04
2.563340801403234309e+03 3.162277660168379394e-04
2.632433408900902577e+03 5.623413251903490971e-04
2.708409875218610068e+03 1.000000000000000021e-03
2.789255434277803033e+03 1.778279410038922752e-03
2.872104039525931512e+03 3.162277660168379394e-03
2.951534237520833358e+03 5.623413251903490971e-03
3.023681260902903887e+03 1.000000000000000021e-02
3.085718955873357118e+03 1.778279410038922925e-02
3.146812556349098486e+03 3.162277660168379134e-02
3.204074056884633137e+03 5.623413251903491145e-02
3.278587016490466340e+03 1.000000000000000056e-01
3.424536808743227084e+03 1.778279410038922925e-01
3.623656605312041393e+03 3.162277660168379412e-01
3.852305802517721531e+03 5.623413251903490728e-01
4.134866199503420830e+03 1.000000000000000000e+00
4.442703881471843488e+03 1.778279410038922759e+00
4.832501562761651257e+03 3.162277660168379523e+00
5.365105591220441056e+03 5.623413251903491172e+00
6.169936472981400584e+03 1.000000000000000000e+01
7.421249161296044804e+03 1.778279410038922848e+01
9.107673444279203977e+03 3.162277660168379256e+01
1.110548363466992851e+04 5.623413251903490817e+01
1.351422165319348824e+04 1.000000000000000000e+02
1.645376321866937724e+04 1.778279410038922776e+02
1.996110443260546890e+04 3.162277660168379612e+02
