# Temperature (K), Pressure (bars)
9.149759473685580815e+02 3.162277660168379394e-04
9.577718408864784578e+02 5.623413251903490971e-04
1.000567735384019898e+03 1.000000000000000021e-03
1.044212116751763006e+03 1.778279410038922752e-03
1.090099221080499547e+03 3.162277660168379394e-03
1.137912392950622007e+03 5.623413251903490971e-03
1.187934436898953663e+03 1.000000000000000021e-02
1.240207580646471115e+03 1.778279410038922925e-02
1.300616867247082837e+03 3.162277660168379134e-02
1.387638461693904219e+03 5.623413251903491145e-02
1.516996749325788642e+03 1.000000000000000056e-01
1.681347020145451779e+03 1.778279410038922925e-01
1.876705514117403254e+03 3.162277660168379412e-01
2.114103445302576802e+03 5.623413251903490728e-01
2.373077098346391722e+03 1.000000000000000000e+00
2.624248305657354649e+03 1.778279410038922759e+00
2.864825373374402261e+03 3.162277660168379523e+00
3.100743996152475574e+03 5.623413251903491172e+00
3.338886130919844618e+03 1.000000000000000000e+01
3.586272198944936463e+03 1.778279410038922848e+01
3.851419440295946060e+03 3.162277660168379256e+01
4.139591484718892389e+03 5.623413251903490817e+01
4.457510822962855855e+03 1.000000000000000000e+02
4.808114623959118035e+03 1.778279410038922776e+02
5.210634154899097666e+03 3.162277660168379612e+02
