# Temperature (K), Pressure (bars)
1.795494871092068479e+03 9.999999999999999547e-07
1.821968288451879062e+03 1.778279410038922901e-06
1.848441705811689417e+03 3.162277660168379191e-06
1.876849448905683630e+03 5.623413251903491208e-06
1.910959694569201929e+03 1.000000000000000082e-05
1.949803650526054525e+03 1.778279410038922901e-05
1.992128210083202248e+03 3.162277660168379530e-05
2.038452555509643616e+03 5.623413251903490700e-05
2.087534587877687954e+03 1.000000000000000048e-04
2.138947134828765229e+03 1.778279410038922698e-04
2.193296653266910198e+03 3.162277660168379394e-04
2.251946849189989280e+03 5.623413251903490971e-04
2.316644679954040839e+03 1.000000000000000021e-03
2.392823885718497422e+03 1.778279410038922752e-03
2.486715258158589222e+03 3.162277660168379394e-03
2.595005905774335588e+03 5.623413251903490971e-03
2.713547859015814993e+03 1.000000000000000021e-02
2.843250092150842647e+03 1.778279410038922925e-02
2.985523016525701223e+03 3.162277660168379134e-02
3.142876507458804554e+03 5.623413251903491145e-02
3.320460219925329511e+03 1.000000000000000056e-01
3.511009038760378189e+03 1.778279410038922925e-01
3.722649537662189687e+03 3.162277660168379412e-01
3.969670580544411223e+03 5.623413251903490728e-01
4.249959821699410895e+03 1.000000000000000000e+00
4.601698018627661440e+03 1.778279410038922759e+00
5.076690621640827885e+03 3.162277660168379523e+00
5.776882066166611366e+03 5.623413251903491172e+00
6.828685067858708862e+03 1.000000000000000000e+01
8.360383924243569709e+03 1.778279410038922848e+01
1.000000000000000000e+04 3.162277660168379256e+01
1.000000000000000000e+04 5.623413251903490817e+01
1.000000000000000000e+04 1.000000000000000000e+02
1.000000000000000000e+04 1.778279410038922776e+02
1.000000000000000000e+04 3.162277660168379612e+02
