# Temperature (K), Pressure (bars)
1.052514993920173765e+03 5.623413251903490700e-05
1.094566396154744098e+03 1.000000000000000048e-04
1.136617800674121099e+03 1.778279410038922698e-04
1.180827776810460136e+03 3.162277660168379394e-04
1.229102720729692464e+03 5.623413251903490971e-04
1.280760019917345289e+03 1.000000000000000021e-03
1.335640579361285518e+03 1.778279410038922752e-03
1.395646300277727505e+03 3.162277660168379394e-03
1.462860360949789765e+03 5.623413251903490971e-03
1.537991461824017733e+03 1.000000000000000021e-02
1.625965467512182386e+03 1.778279410038922925e-02
1.731761825467735662e+03 3.162277660168379134e-02
1.850213588448985774e+03 5.623413251903491145e-02
1.984643462535935214e+03 1.000000000000000056e-01
2.163855199621824340e+03 1.778279410038922925e-01
2.387770344088703496e+03 3.162277660168379412e-01
2.610283235337951737e+03 5.623413251903490728e-01
2.816815171931385976e+03 1.000000000000000000e+00
3.021817521268984819e+03 1.778279410038922759e+00
3.230921003636949990e+03 3.162277660168379523e+00
3.448313987456277118e+03 5.623413251903491172e+00
3.678576715695735402e+03 1.000000000000000000e+01
3.927006465844915965e+03 1.778279410038922848e+01
4.201318257890499808e+03 3.162277660168379256e+01
4.507013673927617674e+03 5.623413251903490817e+01
4.851900305374931122e+03 1.000000000000000000e+02
5.239659244422447046e+03 1.778279410038922776e+02
5.694980853371039302e+03 3.162277660168379612e+02
