# Temperature (K), Pressure (bars)
8.775407436800352343e+02 5.623413251903490971e-04
9.160751318424347573e+02 1.000000000000000021e-03
9.546095208184996181e+02 1.778279410038922752e-03
9.944208420111480109e+02 3.162277660168379394e-03
1.035963362427343100e+03 5.623413251903490971e-03
1.078387228312306661e+03 1.000000000000000021e-02
1.121981373159607074e+03 1.778279410038922925e-02
1.168436374119843094e+03 3.162277660168379134e-02
1.220937447000701695e+03 5.623413251903491145e-02
1.283249804531276368e+03 1.000000000000000056e-01
1.362939460300130122e+03 1.778279410038922925e-01
1.508500633173378901e+03 3.162277660168379412e-01
1.748245201058030261e+03 5.623413251903490728e-01
2.025644283124377807e+03 1.000000000000000000e+00
2.301210047544379904e+03 1.778279410038922759e+00
2.572886436406760367e+03 3.162277660168379523e+00
2.835522709111683071e+03 5.623413251903491172e+00
3.092116890854204030e+03 1.000000000000000000e+01
3.349793290033294852e+03 1.778279410038922848e+01
3.618167969433201506e+03 3.162277660168379256e+01
3.903390586247247029e+03 5.623413251903490817e+01
4.212463333402935859e+03 1.000000000000000000e+02
4.548649207229790591e+03 1.778279410038922776e+02
4.928954637158537480e+03 3.162277660168379612e+02
