# Temperature (K), Pressure (bars)
1.436504934014614037e+03 1.000000000000000082e-05
1.464598172589891419e+03 1.778279410038922901e-05
1.492691415482862112e+03 3.162277660168379530e-05
1.529402647592747144e+03 5.623413251903490700e-05
1.570669184355565221e+03 1.000000000000000048e-04
1.613283620414924599e+03 1.778279410038922698e-04
1.656516100289965152e+03 3.162277660168379394e-04
1.700640053631049796e+03 5.623413251903490971e-04
1.744681999567756975e+03 1.000000000000000021e-03
1.788612865397344876e+03 1.778279410038922752e-03
1.836173337136382088e+03 3.162277660168379394e-03
1.887159768518977444e+03 5.623413251903490971e-03
1.939767444259322701e+03 1.000000000000000021e-02
1.996082556520061871e+03 1.778279410038922925e-02
2.058095826435255731e+03 3.162277660168379134e-02
2.132194271976258278e+03 5.623413251903491145e-02
2.219654630171158260e+03 1.000000000000000056e-01
2.347430589883822449e+03 1.778279410038922925e-01
2.539336526034865528e+03 3.162277660168379412e-01
2.745492080818306022e+03 5.623413251903490728e-01
2.938953168563490181e+03 1.000000000000000000e+00
3.137114858280727276e+03 1.778279410038922759e+00
3.343701456112119104e+03 3.162277660168379523e+00
3.561399424361369256e+03 5.623413251903491172e+00
3.794301722430626342e+03 1.000000000000000000e+01
4.047704098401258761e+03 1.778279410038922848e+01
4.329461944954897263e+03 3.162277660168379256e+01
4.645879075432701939e+03 5.623413251903490817e+01
5.005692207423886430e+03 1.000000000000000000e+02
5.413500064881633989e+03 1.778279410038922776e+02
5.896616848834719349e+03 3.162277660168379612e+02
