# Temperature (K), Pressure (bars)
8.530681811154781826e+02 9.999999999999999547e-07
8.842453979712258842e+02 1.778279410038922901e-06
9.154226148673772059e+02 3.162277660168379191e-06
9.481889320386850386e+02 5.623413251903491208e-06
9.843716344018187101e+02 1.000000000000000082e-05
1.024737048289093764e+03 1.778279410038922901e-05
1.068558312223182838e+03 3.162277660168379530e-05
1.115444381397997859e+03 5.623413251903490700e-05
1.165408250742927748e+03 1.000000000000000048e-04
1.218826046994059197e+03 1.778279410038922698e-04
1.275907567381628951e+03 3.162277660168379394e-04
1.338562175526133160e+03 5.623413251903490971e-04
1.410014093890376444e+03 1.000000000000000021e-03
1.495461547463740771e+03 1.778279410038922752e-03
1.596998363944395123e+03 3.162277660168379394e-03
1.728223691143645055e+03 5.623413251903490971e-03
1.910027842718074226e+03 1.000000000000000021e-02
2.120349943870124662e+03 1.778279410038922925e-02
2.321889763873019547e+03 3.162277660168379134e-02
2.508065261851088962e+03 5.623413251903491145e-02
2.685342949034168214e+03 1.000000000000000056e-01
2.859197895540646641e+03 1.778279410038922925e-01
3.033490273225823330e+03 3.162277660168379412e-01
3.211404044953909761e+03 5.623413251903490728e-01
3.396574219501385869e+03 1.000000000000000000e+00
3.593346053344609572e+03 1.778279410038922759e+00
3.806386674636279167e+03 3.162277660168379523e+00
4.040684912702885413e+03 5.623413251903491172e+00
4.302095843883065754e+03 1.000000000000000000e+01
4.598042729785450319e+03 1.778279410038922848e+01
4.938741242835751109e+03 3.162277660168379256e+01
5.341592577151093792e+03 5.623413251903490817e+01
5.822965618091137912e+03 1.000000000000000000e+02
6.412179782648596301e+03 1.778279410038922776e+02
7.154502818472595209e+03 3.162277660168379612e+02
