# Temperature (K), Pressure (bars)
2.180938030957222054e+03 9.999999999999999547e-07
2.205423545352911788e+03 1.778279410038922901e-06
2.229909059748601067e+03 3.162277660168379191e-06
2.264419061288832836e+03 5.623413251903491208e-06
2.303579615428292527e+03 1.000000000000000082e-05
2.345553920058899621e+03 1.778279410038922901e-05
2.391208249265239374e+03 3.162277660168379530e-05
2.439101161373537252e+03 5.623413251903490700e-05
2.487718393021890734e+03 1.000000000000000048e-04
2.534365811573065912e+03 1.778279410038922698e-04
2.577553481783852476e+03 3.162277660168379394e-04
2.617005160624711607e+03 5.623413251903490971e-04
2.652865547121271902e+03 1.000000000000000021e-03
2.686830278125416498e+03 1.778279410038922752e-03
2.723006802263317695e+03 3.162277660168379394e-03
2.765190652872677674e+03 5.623413251903490971e-03
2.819205997651204598e+03 1.000000000000000021e-02
2.884805932600274900e+03 1.778279410038922925e-02
2.971680814434587774e+03 3.162277660168379134e-02
3.099238568065425625e+03 5.623413251903491145e-02
3.256472980699549680e+03 1.000000000000000056e-01
3.436131265230711961e+03 1.778279410038922925e-01
3.630766719813690088e+03 3.162277660168379412e-01
3.855560182054842699e+03 5.623413251903490728e-01
4.118060881751737725e+03 1.000000000000000000e+00
4.419353994923892969e+03 1.778279410038922759e+00
4.796814897319115516e+03 3.162277660168379523e+00
5.300715592982538510e+03 5.623413251903491172e+00
6.028561087784171832e+03 1.000000000000000000e+01
7.141601217395999811e+03 1.778279410038922848e+01
8.737687969994869491e+03 3.162277660168379256e+01
1.000000000000000000e+04 5.623413251903490817e+01
1.000000000000000000e+04 1.000000000000000000e+02
1.000000000000000000e+04 1.778279410038922776e+02
1.000000000000000000e+04 3.162277660168379612e+02
