# Temperature (K), Pressure (bars)
2.245658379472797606e+03 9.999999999999999547e-07
2.257355280793779912e+03 1.778279410038922901e-06
2.269052182114762218e+03 3.162277660168379191e-06
2.295349882643591172e+03 5.623413251903491208e-06
2.328768843388120331e+03 1.000000000000000082e-05
2.364544956843308682e+03 1.778279410038922901e-05
2.403393338020358897e+03 3.162277660168379530e-05
2.444296362563373350e+03 5.623413251903490700e-05
2.485859418267801175e+03 1.000000000000000048e-04
2.524833255660661052e+03 1.778279410038922698e-04
2.558029859341267638e+03 3.162277660168379394e-04
2.585186719984322735e+03 5.623413251903490971e-04
2.610954802186616689e+03 1.000000000000000021e-03
2.642124792131487084e+03 1.778279410038922752e-03
2.684713357988595817e+03 3.162277660168379394e-03
2.738433086700159038e+03 5.623413251903490971e-03
2.801479400209827418e+03 1.000000000000000021e-02
2.861149808362892145e+03 1.778279410038922925e-02
2.932862023992227023e+03 3.162277660168379134e-02
3.057838583982803357e+03 5.623413251903491145e-02
3.217882751720583201e+03 1.000000000000000056e-01
3.393599044095718909e+03 1.778279410038922925e-01
3.598219965782122472e+03 3.162277660168379412e-01
3.836858033851315668e+03 5.623413251903490728e-01
4.119481508107926857e+03 1.000000000000000000e+00
4.422106581205445764e+03 1.778279410038922759e+00
4.802496393764737149e+03 3.162277660168379523e+00
5.315591291778967388e+03 5.623413251903491172e+00
6.079464996657270603e+03 1.000000000000000000e+01
7.271739329269466907e+03 1.778279410038922848e+01
8.916703895322372773e+03 3.162277660168379256e+01
1.000000000000000000e+04 5.623413251903490817e+01
1.000000000000000000e+04 1.000000000000000000e+02
1.000000000000000000e+04 1.778279410038922776e+02
1.000000000000000000e+04 3.162277660168379612e+02
