# Temperature (K), Pressure (bars)
9.704717635244265921e+02 1.000000000000000048e-04
1.015060856963285005e+03 1.778279410038922698e-04
1.059649950856428632e+03 3.162277660168379394e-04
1.103966584335318430e+03 5.623413251903490971e-04
1.149495245312430825e+03 1.000000000000000021e-03
1.198100101422342959e+03 1.778279410038922752e-03
1.250602961348184181e+03 3.162277660168379394e-03
1.308327402863119914e+03 5.623413251903490971e-03
1.377157276881165672e+03 1.000000000000000021e-02
1.469942584960870363e+03 1.778279410038922925e-02
1.593850909588489685e+03 3.162277660168379134e-02
1.737969682449391939e+03 5.623413251903491145e-02
1.906915874087928159e+03 1.000000000000000056e-01
2.117833424144007040e+03 1.778279410038922925e-01
2.348929935264446613e+03 3.162277660168379412e-01
2.570893666249605303e+03 5.623413251903490728e-01
2.782686965925960521e+03 1.000000000000000000e+00
2.991278971466382700e+03 1.778279410038922759e+00
3.202024529130347219e+03 3.162277660168379523e+00
3.419737316792707588e+03 5.623413251903491172e+00
3.649545441112054959e+03 1.000000000000000000e+01
3.896934104099887918e+03 1.778279410038922848e+01
4.169694222738528879e+03 3.162277660168379256e+01
4.473118227987353748e+03 5.623413251903490817e+01
4.814761792943096225e+03 1.000000000000000000e+02
5.198178692609832069e+03 1.778279410038922776e+02
5.647153044240779309e+03 3.162277660168379612e+02
