# Temperature (K), Pressure (bars)
8.418424834949599926e+02 9.999999999999999547e-07
8.620745721418472840e+02 1.778279410038922901e-06
8.823066608010559548e+02 3.162277660168379191e-06
9.079057153672025606e+02 5.623413251903491208e-06
9.373938182866716033e+02 1.000000000000000082e-05
9.695299384472582460e+02 1.778279410038922901e-05
1.005387502171567235e+03 3.162277660168379530e-05
1.044813413615655691e+03 5.623413251903490700e-05
1.087863717485111692e+03 1.000000000000000048e-04
1.134701438220537511e+03 1.778279410038922698e-04
1.185080149827744208e+03 3.162277660168379394e-04
1.239047205881451646e+03 5.623413251903490971e-04
1.296663862091226292e+03 1.000000000000000021e-03
1.359649549801219564e+03 1.778279410038922752e-03
1.432558926518022417e+03 3.162277660168379394e-03
1.525872572642895875e+03 5.623413251903490971e-03
1.645299588091004580e+03 1.000000000000000021e-02
1.804719116940726963e+03 1.778279410038922925e-02
2.012608753938343170e+03 3.162277660168379134e-02
2.231261950468892337e+03 5.623413251903491145e-02
2.432473671149034999e+03 1.000000000000000056e-01
2.621773595530341026e+03 1.778279410038922925e-01
2.805376862011377852e+03 3.162277660168379412e-01
2.988158327626273149e+03 5.623413251903490728e-01
3.173830395747601870e+03 1.000000000000000000e+00
3.366266536357701625e+03 1.778279410038922759e+00
3.569916781969750446e+03 3.162277660168379523e+00
3.789446397721575977e+03 5.623413251903491172e+00
4.029749894711627803e+03 1.000000000000000000e+01
4.296397531929066645e+03 1.778279410038922848e+01
4.596230106258967680e+03 3.162277660168379256e+01
4.938469366927095507e+03 5.623413251903490817e+01
5.339727629546701792e+03 1.000000000000000000e+02
5.812023725937106974e+03 1.778279410038922776e+02
6.378173473549849405e+03 3.162277660168379612e+02
