# Temperature (K), Pressure (bars)
9.717242219545105399e+02 1.778279410038922901e-06
1.013415370208316062e+03 3.162277660168379191e-06
1.055106524780451537e+03 5.623413251903491208e-06
1.113130645807247447e+03 1.000000000000000082e-05
1.197407495344520157e+03 1.778279410038922901e-05
1.317780195726619922e+03 3.162277660168379530e-05
1.469998360835627636e+03 5.623413251903490700e-05
1.611552216867593870e+03 1.000000000000000048e-04
1.707983674436039564e+03 1.778279410038922698e-04
1.770826289766564742e+03 3.162277660168379394e-04
1.822487928146044169e+03 5.623413251903490971e-04
1.869166527696827870e+03 1.000000000000000021e-03
1.912429587563657833e+03 1.778279410038922752e-03
1.955904131787213828e+03 3.162277660168379394e-03
2.002084447639743075e+03 5.623413251903490971e-03
2.053650978852853314e+03 1.000000000000000021e-02
2.113190535374584215e+03 1.778279410038922925e-02
2.184865719053137127e+03 3.162277660168379134e-02
2.272003375199673883e+03 5.623413251903491145e-02
2.394503476506825336e+03 1.000000000000000056e-01
2.563006454341577410e+03 1.778279410038922925e-01
2.744258052545583269e+03 3.162277660168379412e-01
2.922722778985251352e+03 5.623413251903490728e-01
3.108615217504315751e+03 1.000000000000000000e+00
3.303891647584788643e+03 1.778279410038922759e+00
3.510148560621777506e+03 3.162277660168379523e+00
3.730581035986117058e+03 5.623413251903491172e+00
3.969845641430973956e+03 1.000000000000000000e+01
4.233526068510167534e+03 1.778279410038922848e+01
4.528256411285603463e+03 3.162277660168379256e+01
4.862683626693011320e+03 5.623413251903490817e+01
5.252415763076535768e+03 1.000000000000000000e+02
5.708208087465172866e+03 1.778279410038922776e+02
6.250630975364054393e+03 3.162277660168379612e+02
