# Temperature (K), Pressure (bars)
9.745924120574055678e+02 1.000000000000000048e-04
1.018685011920025318e+03 1.778279410038922698e-04
1.062777613521994908e+03 3.162277660168379394e-04
1.107895118553139582e+03 5.623413251903490971e-04
1.154161992493093067e+03 1.000000000000000021e-03
1.202856340205159313e+03 1.778279410038922752e-03
1.254646880980819788e+03 3.162277660168379394e-03
1.309584270022089413e+03 5.623413251903490971e-03
1.369260664388514215e+03 1.000000000000000021e-02
1.439589377151833332e+03 1.778279410038922925e-02
1.527176345047259247e+03 3.162277660168379134e-02
1.634194752505460428e+03 5.623413251903491145e-02
1.765067843770125137e+03 1.000000000000000056e-01
1.915541078020247824e+03 1.778279410038922925e-01
2.104915110089834343e+03 3.162277660168379412e-01
2.349458465850924767e+03 5.623413251903490728e-01
2.597678911657709705e+03 1.000000000000000000e+00
2.823436077448206106e+03 1.778279410038922759e+00
3.044753948906324695e+03 3.162277660168379523e+00
3.268613481716166916e+03 5.623413251903491172e+00
3.500544056791506591e+03 1.000000000000000000e+01
3.746318351568299477e+03 1.778279410038922848e+01
4.013841083409633029e+03 3.162277660168379256e+01
4.308293813394918288e+03 5.623413251903490817e+01
4.636703218248761004e+03 1.000000000000000000e+02
5.002636076957048317e+03 1.778279410038922776e+02
5.426583344321855293e+03 3.162277660168379612e+02
