# Temperature (K), Pressure (bars)
1.514910812602914120e+03 9.999999999999999547e-07
1.536506032221909436e+03 1.778279410038922901e-06
1.558101251842894271e+03 3.162277660168379191e-06
1.583148319898893988e+03 5.623413251903491208e-06
1.614942616595425079e+03 1.000000000000000082e-05
1.653936271165245444e+03 1.778279410038922901e-05
1.699661876242457311e+03 3.162277660168379530e-05
1.751725750460453582e+03 5.623413251903490700e-05
1.809946159273749799e+03 1.000000000000000048e-04
1.872707573287889318e+03 1.778279410038922698e-04
1.939668544607428430e+03 3.162277660168379394e-04
2.011752624263673169e+03 5.623413251903490971e-04
2.091815557706998788e+03 1.000000000000000021e-03
2.187467620884696771e+03 1.778279410038922752e-03
2.299715584193107588e+03 3.162277660168379394e-03
2.420940016941714021e+03 5.623413251903490971e-03
2.547591569422125303e+03 1.000000000000000021e-02
2.681046008983344109e+03 1.778279410038922925e-02
2.823110616399084392e+03 3.162277660168379134e-02
2.975937627627176880e+03 5.623413251903491145e-02
3.142129040679002173e+03 1.000000000000000056e-01
3.324415973478306114e+03 1.778279410038922925e-01
3.525009453244843826e+03 3.162277660168379412e-01
3.746487144233959043e+03 5.623413251903490728e-01
3.994483776864114589e+03 1.000000000000000000e+00
4.280088666280011239e+03 1.778279410038922759e+00
4.605563407544987967e+03 3.162277660168379523e+00
5.014565143304826961e+03 5.623413251903491172e+00
5.562954596778787163e+03 1.000000000000000000e+01
6.362954515525221723e+03 1.778279410038922848e+01
7.586136627468264123e+03 3.162277660168379256e+01
9.272072441761256414e+03 5.623413251903490817e+01
1.131478769148583342e+04 1.000000000000000000e+02
1.377579228611066901e+04 1.778279410038922776e+02
1.671246163719582910e+04 3.162277660168379612e+02
