# Temperature (K), Pressure (bars)
9.958749850486268542e+02 1.000000000000000048e-04
1.047865084364738323e+03 1.778279410038922698e-04
1.099855184752389960e+03 3.162277660168379394e-04
1.145670977396155422e+03 5.623413251903490971e-04
1.183549595969017901e+03 1.000000000000000021e-03
1.215417341460117314e+03 1.778279410038922752e-03
1.244602504456109273e+03 3.162277660168379394e-03
1.273046326974236536e+03 5.623413251903490971e-03
1.301122265616885898e+03 1.000000000000000021e-02
1.329370418995595173e+03 1.778279410038922925e-02
1.374808431293272406e+03 3.162277660168379134e-02
1.450953108074288366e+03 5.623413251903491145e-02
1.552788854056544096e+03 1.000000000000000056e-01
1.679391392358976191e+03 1.778279410038922925e-01
1.824381410925340106e+03 3.162277660168379412e-01
1.963288080482196847e+03 5.623413251903490728e-01
2.138348651737159798e+03 1.000000000000000000e+00
2.405025303185334906e+03 1.778279410038922759e+00
2.689852241754858369e+03 3.162277660168379523e+00
2.943786818732947722e+03 5.623413251903491172e+00
3.192823102558030314e+03 1.000000000000000000e+01
3.446068266614890945e+03 1.778279410038922848e+01
3.712514348885216350e+03 3.162277660168379256e+01
3.998375199757574592e+03 5.623413251903490817e+01
4.310472858584639653e+03 1.000000000000000000e+02
4.652185713818019394e+03 1.778279410038922776e+02
5.040753917195885151e+03 3.162277660168379612e+02
