# Temperature (K), Pressure (bars)
8.335910785881729907e+02 3.162277660168379394e-04
8.833051890903460617e+02 5.623413251903490971e-04
9.330193006651197720e+02 1.000000000000000021e-03
9.814739559414188079e+02 1.778279410038922752e-03
1.029723993006925639e+03 3.162277660168379394e-03
1.079223671493867414e+03 5.623413251903490971e-03
1.132682418825822879e+03 1.000000000000000021e-02
1.194052699929534356e+03 1.778279410038922925e-02
1.269053325515114921e+03 3.162277660168379134e-02
1.368772057202138740e+03 5.623413251903491145e-02
1.525945425285894999e+03 1.000000000000000056e-01
1.756322134081623517e+03 1.778279410038922925e-01
2.019280385010867349e+03 3.162277660168379412e-01
2.279238498751364659e+03 5.623413251903490728e-01
2.527583550190357983e+03 1.000000000000000000e+00
2.762133774299708875e+03 1.778279410038922759e+00
2.988399762470817222e+03 3.162277660168379523e+00
3.213902414439015502e+03 5.623413251903491172e+00
3.445821793271605657e+03 1.000000000000000000e+01
3.690628083717289428e+03 1.778279410038922848e+01
3.956609257988983700e+03 3.162277660168379256e+01
4.248268150578653149e+03 5.623413251903490817e+01
4.572384757422024450e+03 1.000000000000000000e+02
4.931983307231951585e+03 1.778279410038922776e+02
5.347551161397710530e+03 3.162277660168379612e+02
