# Temperature (K), Pressure (bars)
9.540534413058799146e+02 3.162277660168379394e-04
1.005630734365025319e+03 5.623413251903490971e-04
1.057208028904695311e+03 1.000000000000000021e-03
1.108361856144598960e+03 1.778279410038922752e-03
1.159660052431580198e+03 3.162277660168379394e-03
1.212383843461044989e+03 5.623413251903490971e-03
1.267126141955569210e+03 1.000000000000000021e-02
1.324711327116030816e+03 1.778279410038922925e-02
1.391443653623399769e+03 3.162277660168379134e-02
1.480049799234313014e+03 5.623413251903491145e-02
1.603820033764356367e+03 1.000000000000000056e-01
1.759151645462834949e+03 1.778279410038922925e-01
1.950478505251496472e+03 3.162277660168379412e-01
2.190235347528569037e+03 5.623413251903490728e-01
2.445500011160308077e+03 1.000000000000000000e+00
2.687399488015331826e+03 1.778279410038922759e+00
2.921028957599771275e+03 3.162277660168379523e+00
3.152546799122405446e+03 5.623413251903491172e+00
3.388361854242802565e+03 1.000000000000000000e+01
3.634915501917163510e+03 1.778279410038922848e+01
3.900414447025339996e+03 3.162277660168379256e+01
4.190120639879932241e+03 5.623413251903490817e+01
4.510845968192866167e+03 1.000000000000000000e+02
4.865784203093080578e+03 1.778279410038922776e+02
5.274272739360229934e+03 3.162277660168379612e+02
