# Temperature (K), Pressure (bars)
1.813903581682952108e+03 9.999999999999999547e-07
1.842732032426595197e+03 1.778279410038922901e-06
1.871560483170238513e+03 3.162277660168379191e-06
1.904903729049971389e+03 5.623413251903491208e-06
1.942137972479311202e+03 1.000000000000000082e-05
1.982029475347372909e+03 1.778279410038922901e-05
2.025465563158262285e+03 3.162277660168379530e-05
2.071851299512413334e+03 5.623413251903490700e-05
2.120946930048445211e+03 1.000000000000000048e-04
2.173734792712863054e+03 1.778279410038922698e-04
2.231404999998363564e+03 3.162277660168379394e-04
2.295513664231268194e+03 5.623413251903490971e-04
2.369515689421070874e+03 1.000000000000000021e-03
2.457846036468974035e+03 1.778279410038922752e-03
2.559568365029902452e+03 3.162277660168379394e-03
2.671538408757274738e+03 5.623413251903490971e-03
2.793482940126747508e+03 1.000000000000000021e-02
2.926911300259082509e+03 1.778279410038922925e-02
3.075246444363452156e+03 3.162277660168379134e-02
3.246077560435433952e+03 5.623413251903491145e-02
3.428588949573550053e+03 1.000000000000000056e-01
3.635370396121076737e+03 1.778279410038922925e-01
3.881709264603505744e+03 3.162277660168379412e-01
4.165975205411474235e+03 5.623413251903490728e-01
4.537912385110252217e+03 1.000000000000000000e+00
5.079995504994135445e+03 1.778279410038922759e+00
5.950217581892705311e+03 3.162277660168379523e+00
7.287562470933533405e+03 5.623413251903491172e+00
8.962672256823912903e+03 1.000000000000000000e+01
1.000000000000000000e+04 1.778279410038922848e+01
1.000000000000000000e+04 3.162277660168379256e+01
1.000000000000000000e+04 5.623413251903490817e+01
1.000000000000000000e+04 1.000000000000000000e+02
1.000000000000000000e+04 1.778279410038922776e+02
1.000000000000000000e+04 3.162277660168379612e+02
