# Temperature (K), Pressure (bars)
1.197124478724660776e+03 9.999999999999999547e-07
1.228956605076230517e+03 1.778279410038922901e-06
1.260788731428315714e+03 3.162277660168379191e-06
1.298406245257916453e+03 5.623413251903491208e-06
1.341435217572268812e+03 1.000000000000000082e-05
1.388963436354731130e+03 1.778279410038922901e-05
1.442570527219482756e+03 3.162277660168379530e-05
1.502449281137111029e+03 5.623413251903490700e-05
1.569907408155349003e+03 1.000000000000000048e-04
1.648985390345827454e+03 1.778279410038922698e-04
1.738275566239669843e+03 3.162277660168379394e-04
1.832325309419415134e+03 5.623413251903490971e-04
1.936546523725658972e+03 1.000000000000000021e-03
2.064374630152930877e+03 1.778279410038922752e-03
2.211332349357368912e+03 3.162277660168379394e-03
2.362306266825391049e+03 5.623413251903490971e-03
2.513333846469476157e+03 1.000000000000000021e-02
2.666653030327375745e+03 1.778279410038922925e-02
2.824640798912087121e+03 3.162277660168379134e-02
2.989870692922931539e+03 5.623413251903491145e-02
3.165252062160304376e+03 1.000000000000000056e-01
3.353542754339158364e+03 1.778279410038922925e-01
3.557348977570549323e+03 3.162277660168379412e-01
3.780894132252194140e+03 5.623413251903490728e-01
4.032199908485718879e+03 1.000000000000000000e+00
4.324252362043941503e+03 1.778279410038922759e+00
4.663786222125974746e+03 3.162277660168379523e+00
5.097285186822366995e+03 5.623413251903491172e+00
5.692169714868325173e+03 1.000000000000000000e+01
6.564007715466314949e+03 1.778279410038922848e+01
7.866236228051318903e+03 3.162277660168379256e+01
9.623941457469149100e+03 5.623413251903490817e+01
1.172790613095311710e+04 1.000000000000000000e+02
1.427542790466372207e+04 1.778279410038922776e+02
1.731192059925513968e+04 3.162277660168379612e+02
