# Temperature (K), Pressure (bars)
1.610296402321538153e+03 3.162277660168379530e-05
1.629523736348375451e+03 5.623413251903490700e-05
1.648751073415948213e+03 1.000000000000000048e-04
1.672957179807793636e+03 1.778279410038922698e-04
1.705470661376321459e+03 3.162277660168379394e-04
1.743377390011986108e+03 5.623413251903490971e-04
1.782709711417963490e+03 1.000000000000000021e-03
1.823739035215901367e+03 1.778279410038922752e-03
1.864597139870876845e+03 3.162277660168379394e-03
1.904476309880079270e+03 5.623413251903490971e-03
1.944928707125228357e+03 1.000000000000000021e-02
1.987078529339267334e+03 1.778279410038922925e-02
2.031685158426027556e+03 3.162277660168379134e-02
2.080955015753306725e+03 5.623413251903491145e-02
2.136625821816139705e+03 1.000000000000000056e-01
2.205471795676184229e+03 1.778279410038922925e-01
2.289154302512325103e+03 3.162277660168379412e-01
2.409789196448770326e+03 5.623413251903490728e-01
2.598593611784380755e+03 1.000000000000000000e+00
2.819670192600422524e+03 1.778279410038922759e+00
3.038399563398137161e+03 3.162277660168379523e+00
3.262056001067179750e+03 5.623413251903491172e+00
3.495332678206280889e+03 1.000000000000000000e+01
3.742614806666367713e+03 1.778279410038922848e+01
4.010435955013129387e+03 3.162277660168379256e+01
4.304961476006399607e+03 5.623413251903490817e+01
4.633311541055966700e+03 1.000000000000000000e+02
4.999056360109372690e+03 1.778279410038922776e+02
5.422614460535963190e+03 3.162277660168379612e+02
