# Temperature (K), Pressure (bars)
8.092204061468814871e+02 1.000000000000000021e-03
8.507484018670255637e+02 1.778279410038922752e-03
8.922763991254621487e+02 3.162277660168379394e-03
9.332998693956759553e+02 5.623413251903490971e-03
9.741533837965093880e+02 1.000000000000000021e-02
1.015533893313298336e+03 1.778279410038922925e-02
1.058036126420738810e+03 3.162277660168379134e-02
1.103936301370182264e+03 5.623413251903491145e-02
1.157068006464039854e+03 1.000000000000000056e-01
1.222730570557964711e+03 1.778279410038922925e-01
1.306210143158408755e+03 3.162277660168379412e-01
1.418335057065011142e+03 5.623413251903490728e-01
1.574540125234363359e+03 1.000000000000000000e+00
1.790866001605994825e+03 1.778279410038922759e+00
2.063944453998147310e+03 3.162277660168379523e+00
2.357558342284903119e+03 5.623413251903491172e+00
2.649148996205431104e+03 1.000000000000000000e+01
2.938373640575591708e+03 1.778279410038922848e+01
3.228357556152599500e+03 3.162277660168379256e+01
3.523656121268061270e+03 5.623413251903490817e+01
3.832218798169936235e+03 1.000000000000000000e+02
4.159109423005958888e+03 1.778279410038922776e+02
4.518899686616003237e+03 3.162277660168379612e+02
