# Temperature (K), Pressure (bars)
9.573350699324316793e+02 3.162277660168379394e-04
1.001843188654935034e+03 5.623413251903490971e-04
1.046351307647333897e+03 1.000000000000000021e-03
1.090518012121416859e+03 1.778279410038922752e-03
1.136295362558521902e+03 3.162277660168379394e-03
1.185331692769036408e+03 5.623413251903490971e-03
1.240370768574639669e+03 1.000000000000000021e-02
1.307796296862883537e+03 1.778279410038922925e-02
1.393289926610309294e+03 3.162277660168379134e-02
1.500205258904964467e+03 5.623413251903491145e-02
1.623590330295276317e+03 1.000000000000000056e-01
1.758545200015752698e+03 1.778279410038922925e-01
1.905988285006609885e+03 3.162277660168379412e-01
2.097950906052081791e+03 5.623413251903490728e-01
2.356078092567617205e+03 1.000000000000000000e+00
2.622096861268543307e+03 1.778279410038922759e+00
2.863795026211600089e+03 3.162277660168379523e+00
3.100082989397043548e+03 5.623413251903491172e+00
3.338694291879878620e+03 1.000000000000000000e+01
3.586443188581408322e+03 1.778279410038922848e+01
3.851695076589301607e+03 3.162277660168379256e+01
4.139919148099391350e+03 5.623413251903490817e+01
4.457900586132137505e+03 1.000000000000000000e+02
4.808570930452227003e+03 1.778279410038922776e+02
5.211216033908468489e+03 3.162277660168379612e+02
