# Temperature (K), Pressure (bars)
1.181101309761556649e+03 1.000000000000000048e-04
1.216216780060573456e+03 1.778279410038922698e-04
1.251332253093444024e+03 3.162277660168379394e-04
1.292293421425712722e+03 5.623413251903490971e-04
1.340043292016779333e+03 1.000000000000000021e-03
1.394627077122229593e+03 1.778279410038922752e-03
1.452640932976192744e+03 3.162277660168379394e-03
1.517746332730644781e+03 5.623413251903490971e-03
1.598844234159141706e+03 1.000000000000000021e-02
1.682235060767525965e+03 1.778279410038922925e-02
1.758599257639729103e+03 3.162277660168379134e-02
1.837753298555492620e+03 5.623413251903491145e-02
1.932797305791588087e+03 1.000000000000000056e-01
2.046596309029758459e+03 1.778279410038922925e-01
2.197950555006295417e+03 3.162277660168379412e-01
2.409425791703842151e+03 5.623413251903490728e-01
2.640159308623697143e+03 1.000000000000000000e+00
2.858827978752920899e+03 1.778279410038922759e+00
3.076504598977550813e+03 3.162277660168379523e+00
3.299064018726582162e+03 5.623413251903491172e+00
3.531101132056072856e+03 1.000000000000000000e+01
3.777673063609856854e+03 1.778279410038922848e+01
4.046209761161984261e+03 3.162277660168379256e+01
4.342393955713003379e+03 5.623413251903490817e+01
4.673406756024513925e+03 1.000000000000000000e+02
5.042884549358841468e+03 1.778279410038922776e+02
5.471839458068720887e+03 3.162277660168379612e+02
