# Temperature (K), Pressure (bars)
8.546040512622968208e+02 3.162277660168379394e-04
8.954616526568622703e+02 5.623413251903490971e-04
9.363192550836658938e+02 1.000000000000000021e-03
9.771054408099953434e+02 1.778279410038922752e-03
1.018525926515165338e+03 3.162277660168379394e-03
1.060037475643510561e+03 5.623413251903490971e-03
1.103094076333215298e+03 1.000000000000000021e-02
1.149553307900786194e+03 1.778279410038922925e-02
1.205332655100702823e+03 3.162277660168379134e-02
1.267533361120490554e+03 5.623413251903491145e-02
1.382365532283871516e+03 1.000000000000000056e-01
1.605292786435225935e+03 1.778279410038922925e-01
1.876850872381591671e+03 3.162277660168379412e-01
2.144052969554365973e+03 5.623413251903490728e-01
2.406438402785060589e+03 1.000000000000000000e+00
2.655337299317743600e+03 1.778279410038922759e+00
2.892317441994737237e+03 3.162277660168379523e+00
3.124580855582420099e+03 5.623413251903491172e+00
3.360098822110112906e+03 1.000000000000000000e+01
3.606029033339074886e+03 1.778279410038922848e+01
3.871020326826968812e+03 3.162277660168379256e+01
4.159626183547556138e+03 5.623413251903490817e+01
4.478492972792128967e+03 1.000000000000000000e+02
4.830484590862471123e+03 1.778279410038922776e+02
5.235108096621815093e+03 3.162277660168379612e+02
