# Temperature (K), Pressure (bars)
2.169252929593798854e+03 9.999999999999999547e-07
2.175752172645052724e+03 1.778279410038922901e-06
2.182251415696307504e+03 3.162277660168379191e-06
2.206310016199996880e+03 5.623413251903491208e-06
2.238755277451333768e+03 1.000000000000000082e-05
2.273863997105089766e+03 1.778279410038922901e-05
2.314366220783374047e+03 3.162277660168379530e-05
2.359639508613583530e+03 5.623413251903490700e-05
2.408058821092854487e+03 1.000000000000000048e-04
2.457921167857232376e+03 1.778279410038922698e-04
2.506815159286508333e+03 3.162277660168379394e-04
2.552660584778462180e+03 5.623413251903490971e-04
2.594790530795820359e+03 1.000000000000000021e-03
2.633066847068912466e+03 1.778279410038922752e-03
2.669033309399374502e+03 3.162277660168379394e-03
2.706483453500425185e+03 5.623413251903490971e-03
2.751731778576617216e+03 1.000000000000000021e-02
2.805717166123462448e+03 1.778279410038922925e-02
2.871575759652122088e+03 3.162277660168379134e-02
2.968894536206490557e+03 5.623413251903491145e-02
3.103484428177192058e+03 1.000000000000000056e-01
3.262512483159061048e+03 1.778279410038922925e-01
3.443244114915600676e+03 3.162277660168379412e-01
3.649264871114730340e+03 5.623413251903490728e-01
3.882545960465061398e+03 1.000000000000000000e+00
4.147446374693588950e+03 1.778279410038922759e+00
4.454173005244409069e+03 3.162277660168379523e+00
4.806027500100644829e+03 5.623413251903491172e+00
5.247645529074931801e+03 1.000000000000000000e+01
5.834704388328179448e+03 1.778279410038922848e+01
6.676866239681786283e+03 3.162277660168379256e+01
7.939058108208246267e+03 5.623413251903490817e+01
9.670606922636050513e+03 1.000000000000000000e+02
1.000000000000000000e+04 1.778279410038922776e+02
1.000000000000000000e+04 3.162277660168379612e+02
