# Temperature (K), Pressure (bars)
9.364782744289871061e+02 3.162277660168379394e-03
9.734052261999618167e+02 5.623413251903490971e-03
1.010332178452029211e+03 1.000000000000000021e-02
1.046808033757428120e+03 1.778279410038922925e-02
1.083919869677671159e+03 3.162277660168379134e-02
1.122797202054118543e+03 5.623413251903491145e-02
1.165750855804587673e+03 1.000000000000000056e-01
1.215589591897121863e+03 1.778279410038922925e-01
1.277540052966004623e+03 3.162277660168379412e-01
1.352651374283459518e+03 5.623413251903490728e-01
1.451787552134748012e+03 1.000000000000000000e+00
1.600645770776945028e+03 1.778279410038922759e+00
1.816232767975585375e+03 3.162277660168379523e+00
2.092475737548553298e+03 5.623413251903491172e+00
2.393330537711567558e+03 1.000000000000000000e+01
2.695321817284859662e+03 1.778279410038922848e+01
3.000893115582008249e+03 3.162277660168379256e+01
3.307823365804849800e+03 5.623413251903490817e+01
3.622319326541156443e+03 1.000000000000000000e+02
3.949681886693590968e+03 1.778279410038922776e+02
4.304060312788123156e+03 3.162277660168379612e+02
