# Temperature (K), Pressure (bars)
9.132612900952831296e+02 3.162277660168379394e-04
9.708169220843424227e+02 5.623413251903490971e-04
1.028372555287126033e+03 1.000000000000000021e-03
1.083549430700930770e+03 1.778279410038922752e-03
1.138553301597831933e+03 3.162277660168379394e-03
1.197265418916814042e+03 5.623413251903490971e-03
1.262952455122098172e+03 1.000000000000000021e-02
1.341686566642161551e+03 1.778279410038922925e-02
1.441196454323965099e+03 3.162277660168379134e-02
1.599862809528691969e+03 5.623413251903491145e-02
1.840222159600155692e+03 1.000000000000000056e-01
2.103833627217035428e+03 1.778279410038922925e-01
2.347558963634151041e+03 3.162277660168379412e-01
2.574389909517978595e+03 5.623413251903490728e-01
2.788234269405773375e+03 1.000000000000000000e+00
2.996113922507126517e+03 1.778279410038922759e+00
3.204828743982919150e+03 3.162277660168379523e+00
3.420552480089910205e+03 5.623413251903491172e+00
3.648850535223768475e+03 1.000000000000000000e+01
3.895143617329619701e+03 1.778279410038922848e+01
4.167468657111041466e+03 3.162277660168379256e+01
4.470443424786106334e+03 5.623413251903490817e+01
4.811580908886605357e+03 1.000000000000000000e+02
5.194376014936751744e+03 1.778279410038922776e+02
5.642662959915111969e+03 3.162277660168379612e+02
