# Temperature (K), Pressure (bars)
1.345826674546662161e+03 9.999999999999999547e-07
1.417723737983239062e+03 1.778279410038922901e-06
1.489620801419816189e+03 3.162277660168379191e-06
1.566904619669409385e+03 5.623413251903491208e-06
1.637846864920026292e+03 1.000000000000000082e-05
1.697984914830928119e+03 1.778279410038922901e-05
1.754072682527026700e+03 3.162277660168379530e-05
1.813642068461536383e+03 5.623413251903490700e-05
1.876313543311313879e+03 1.000000000000000048e-04
1.939731723571426301e+03 1.778279410038922698e-04
2.006657388940299825e+03 3.162277660168379394e-04
2.079414024972083098e+03 5.623413251903490971e-04
2.163408279308356214e+03 1.000000000000000021e-03
2.265656889564470930e+03 1.778279410038922752e-03
2.382715377119376171e+03 3.162277660168379394e-03
2.507882666243279800e+03 5.623413251903490971e-03
2.640237649960185990e+03 1.000000000000000021e-02
2.781104270203225497e+03 1.778279410038922925e-02
2.933131563396307229e+03 3.162277660168379134e-02
3.099982921297858411e+03 5.623413251903491145e-02
3.285504913732627301e+03 1.000000000000000056e-01
3.493065458624525036e+03 1.778279410038922925e-01
3.727344744619229914e+03 3.162277660168379412e-01
4.000193932627350023e+03 5.623413251903490728e-01
4.292337917938279134e+03 1.000000000000000000e+00
4.665720295639667711e+03 1.778279410038922759e+00
5.183228418940239862e+03 3.162277660168379523e+00
5.952194404903155373e+03 5.623413251903491172e+00
7.105642305339873928e+03 1.000000000000000000e+01
8.729350206974530010e+03 1.778279410038922848e+01
1.062341909810605284e+04 3.162277660168379256e+01
1.286978397114071231e+04 5.623413251903490817e+01
1.565411736209347691e+04 1.000000000000000000e+02
1.905207312309554254e+04 1.778279410038922776e+02
2.310174159008659626e+04 3.162277660168379612e+02
