# Temperature (K), Pressure (bars)
1.317415228618128822e+03 1.000000000000000082e-05
1.350766951348080738e+03 1.778279410038922901e-05
1.384118677955164458e+03 3.162277660168379530e-05
1.428135370563628157e+03 5.623413251903490700e-05
1.489633541938425424e+03 1.000000000000000048e-04
1.552421375147433082e+03 1.778279410038922698e-04
1.605678858164716530e+03 3.162277660168379394e-04
1.657337843964977310e+03 5.623413251903490971e-04
1.712132698064014448e+03 1.000000000000000021e-03
1.769732566525294942e+03 1.778279410038922752e-03
1.831316716649198497e+03 3.162277660168379394e-03
1.897382160689017610e+03 5.623413251903490971e-03
1.968847636396622192e+03 1.000000000000000021e-02
2.050362933507066373e+03 1.778279410038922925e-02
2.145347035988409971e+03 3.162277660168379134e-02
2.273332174415368627e+03 5.623413251903491145e-02
2.444148257492803168e+03 1.000000000000000056e-01
2.623489038774238452e+03 1.778279410038922925e-01
2.795944959546607151e+03 3.162277660168379412e-01
2.973120268783617121e+03 5.623413251903490728e-01
3.158419667865138763e+03 1.000000000000000000e+00
3.353478821585838887e+03 1.778279410038922759e+00
3.560205147711765676e+03 3.162277660168379523e+00
3.782129135433785450e+03 5.623413251903491172e+00
4.024107935127960900e+03 1.000000000000000000e+01
4.291889931030487787e+03 1.778279410038922848e+01
4.592441198755546793e+03 3.162277660168379256e+01
4.935040999491833645e+03 5.623413251903490817e+01
5.336254352399052550e+03 1.000000000000000000e+02
5.808611435165387775e+03 1.778279410038922776e+02
6.375555970628472096e+03 3.162277660168379612e+02
