# Temperature (K), Pressure (bars)
1.681021942529887383e+03 9.999999999999999547e-07
1.700749656318126426e+03 1.778279410038922901e-06
1.720477370106365697e+03 3.162277660168379191e-06
1.744286191043133158e+03 5.623413251903491208e-06
1.773663841041249952e+03 1.000000000000000082e-05
1.811070773718509372e+03 1.778279410038922901e-05
1.855617785526788111e+03 3.162277660168379530e-05
1.905540749936062412e+03 5.623413251903490700e-05
1.960444472425302592e+03 1.000000000000000048e-04
2.020003685195081061e+03 1.778279410038922698e-04
2.084552374661434897e+03 3.162277660168379394e-04
2.154670064083856687e+03 5.623413251903490971e-04
2.235036818589779614e+03 1.000000000000000021e-03
2.330774355338614441e+03 1.778279410038922752e-03
2.438239233086602326e+03 3.162277660168379394e-03
2.552911498248154203e+03 5.623413251903490971e-03
2.675186707190905508e+03 1.000000000000000021e-02
2.806481940815563576e+03 1.778279410038922925e-02
2.949054390445299759e+03 3.162277660168379134e-02
3.106148832123315515e+03 5.623413251903491145e-02
3.282125400150036967e+03 1.000000000000000056e-01
3.484923439704289649e+03 1.778279410038922925e-01
3.692158600684540488e+03 3.162277660168379412e-01
3.931437486226199326e+03 5.623413251903490728e-01
4.214207189699536684e+03 1.000000000000000000e+00
4.550960750734166140e+03 1.778279410038922759e+00
4.996800520711175523e+03 3.162277660168379523e+00
5.647921833819389576e+03 5.623413251903491172e+00
6.677787835819560314e+03 1.000000000000000000e+01
8.181325343939239247e+03 1.778279410038922848e+01
9.995274616757438707e+03 3.162277660168379256e+01
1.000000000000000000e+04 5.623413251903490817e+01
1.000000000000000000e+04 1.000000000000000000e+02
1.000000000000000000e+04 1.778279410038922776e+02
1.000000000000000000e+04 3.162277660168379612e+02
