# Temperature (K), Pressure (bars)
1.130002027800167753e+03 3.162277660168379394e-04
1.219853333961799308e+03 5.623413251903490971e-04
1.309704662391499596e+03 1.000000000000000021e-03
1.459553380796670353e+03 1.778279410038922752e-03
1.597122751470938283e+03 3.162277660168379394e-03
1.674046224020461977e+03 5.623413251903490971e-03
1.726956691467768906e+03 1.000000000000000021e-02
1.778602100627867230e+03 1.778279410038922925e-02
1.818252616168008899e+03 3.162277660168379134e-02
1.845487754802320524e+03 5.623413251903491145e-02
1.873113482156285045e+03 1.000000000000000056e-01
1.907247556920661282e+03 1.778279410038922925e-01
1.953536979516380143e+03 3.162277660168379412e-01
2.011921662008422118e+03 5.623413251903490728e-01
2.090615384059165081e+03 1.000000000000000000e+00
2.186008759045900206e+03 1.778279410038922759e+00
2.342603529992952190e+03 3.162277660168379523e+00
2.617602455615173767e+03 5.623413251903491172e+00
2.921432679995794388e+03 1.000000000000000000e+01
3.194622830620669902e+03 1.778279410038922848e+01
3.469910923273055687e+03 3.162277660168379256e+01
3.757425080606301890e+03 5.623413251903490817e+01
4.064742995589460406e+03 1.000000000000000000e+02
4.396178744056922369e+03 1.778279410038922776e+02
4.766983164483759538e+03 3.162277660168379612e+02
