# Temperature (K), Pressure (bars)
2.298055029217804986e+03 9.999999999999999547e-07
2.329245134490450710e+03 1.778279410038922901e-06
2.360435239763096433e+03 3.162277660168379191e-06
2.394561032867550239e+03 5.623413251903491208e-06
2.430493464024964396e+03 1.000000000000000082e-05
2.466202076456835130e+03 1.778279410038922901e-05
2.499863430797417550e+03 3.162277660168379530e-05
2.529670185794395366e+03 5.623413251903490700e-05
2.555838234991747868e+03 1.000000000000000048e-04
2.581020597661385636e+03 1.778279410038922698e-04
2.609604157608897367e+03 3.162277660168379394e-04
2.646651723725651664e+03 5.623413251903490971e-04
2.696256486586521532e+03 1.000000000000000021e-03
2.760386553909276699e+03 1.778279410038922752e-03
2.839463152118355083e+03 3.162277660168379394e-03
2.932854059576917280e+03 5.623413251903490971e-03
3.040117144749729960e+03 1.000000000000000021e-02
3.159671437231555501e+03 1.778279410038922925e-02
3.296809360812393606e+03 3.162277660168379134e-02
3.474690222254152559e+03 5.623413251903491145e-02
3.696784825349665425e+03 1.000000000000000056e-01
3.982193194320664588e+03 1.778279410038922925e-01
4.395222431839063574e+03 3.162277660168379412e-01
5.094610995177498808e+03 5.623413251903490728e-01
6.216985946448510731e+03 1.000000000000000000e+00
7.710696143313572065e+03 1.778279410038922759e+00
9.305977073837852004e+03 3.162277660168379523e+00
1.094794862368891154e+04 5.623413251903491172e+00
1.290031679024209734e+04 1.000000000000000000e+01
1.537492952423934912e+04 1.778279410038922848e+01
1.849803778819862055e+04 3.162277660168379256e+01
2.241469423794539762e+04 5.623413251903490817e+01
2.727279369273968769e+04 1.000000000000000000e+02
3.320434108342392574e+04 1.778279410038922776e+02
4.027994836780005426e+04 3.162277660168379612e+02
