# Temperature (K), Pressure (bars)
1.025485181257106433e+03 1.000000000000000082e-05
1.084573493263969340e+03 1.778279410038922901e-05
1.143688878679071422e+03 3.162277660168379530e-05
1.203069144331193911e+03 5.623413251903490700e-05
1.261459129430518715e+03 1.000000000000000048e-04
1.318545591949297432e+03 1.778279410038922698e-04
1.382302988770419233e+03 3.162277660168379394e-04
1.458304210434122524e+03 5.623413251903490971e-04
1.545380730098226195e+03 1.000000000000000021e-03
1.643014125382303291e+03 1.778279410038922752e-03
1.742062476769327986e+03 3.162277660168379394e-03
1.831875016230661458e+03 5.623413251903490971e-03
1.918395924307129690e+03 1.000000000000000021e-02
2.009193058149561011e+03 1.778279410038922925e-02
2.125636891769139766e+03 3.162277660168379134e-02
2.289771324273368009e+03 5.623413251903491145e-02
2.471075974818314535e+03 1.000000000000000056e-01
2.644926803475494580e+03 1.778279410038922925e-01
2.819419523214850415e+03 3.162277660168379412e-01
2.998483125824958734e+03 5.623413251903490728e-01
3.184574289124419920e+03 1.000000000000000000e+00
3.379567932620730062e+03 1.778279410038922759e+00
3.586185949404191888e+03 3.162277660168379523e+00
3.808529577380668343e+03 5.623413251903491172e+00
4.051623972581591715e+03 1.000000000000000000e+01
4.321288750196925321e+03 1.778279410038922848e+01
4.624634800670732147e+03 3.162277660168379256e+01
4.971190497710558702e+03 5.623413251903490817e+01
5.377946105271824308e+03 1.000000000000000000e+02
5.857508511920519595e+03 1.778279410038922776e+02
6.434006392069567482e+03 3.162277660168379612e+02
