# Temperature (K), Pressure (bars)
1.481563125171094271e+03 9.999999999999999547e-07
1.492847304159775604e+03 1.778279410038922901e-06
1.504131483157873163e+03 3.162277660168379191e-06
1.526362019070684482e+03 5.623413251903491208e-06
1.557064894344077402e+03 1.000000000000000082e-05
1.593606597245614694e+03 1.778279410038922901e-05
1.634592034411231907e+03 3.162277660168379530e-05
1.678537762874706914e+03 5.623413251903490700e-05
1.724302166475739796e+03 1.000000000000000048e-04
1.768595455106943973e+03 1.778279410038922698e-04
1.814136257084564022e+03 3.162277660168379394e-04
1.862674761542402393e+03 5.623413251903490971e-04
1.912569810456086998e+03 1.000000000000000021e-03
1.964817105268480645e+03 1.778279410038922752e-03
2.020705119035821099e+03 3.162277660168379394e-03
2.082215028692710803e+03 5.623413251903490971e-03
2.151255333993351087e+03 1.000000000000000021e-02
2.233924764375679842e+03 1.778279410038922925e-02
2.346602571479208109e+03 3.162277660168379134e-02
2.490659626664191819e+03 5.623413251903491145e-02
2.645179549305370529e+03 1.000000000000000056e-01
2.802175726725599816e+03 1.778279410038922925e-01
2.966644942518807511e+03 3.162277660168379412e-01
3.141230937910376269e+03 5.623413251903490728e-01
3.327444033524907354e+03 1.000000000000000000e+00
3.526310973845874287e+03 1.778279410038922759e+00
3.740047101688295697e+03 3.162277660168379523e+00
3.972791756554919175e+03 5.623413251903491172e+00
4.230120833549230156e+03 1.000000000000000000e+01
4.518953592598149953e+03 1.778279410038922848e+01
4.848503679911919789e+03 3.162277660168379256e+01
5.234565313123597662e+03 5.623413251903490817e+01
5.691520456013991861e+03 1.000000000000000000e+02
6.243632319379536966e+03 1.778279410038922776e+02
6.928702929045891324e+03 3.162277660168379612e+02
