# Temperature (K), Pressure (bars)
9.208184755320456816e+02 5.623413251903490700e-05
9.798358014572761476e+02 1.000000000000000048e-04
1.038853128093695204e+03 1.778279410038922698e-04
1.096971630279813780e+03 3.162277660168379394e-04
1.153022684425533726e+03 5.623413251903490971e-04
1.202101076975762226e+03 1.000000000000000021e-03
1.243705975433313370e+03 1.778279410038922752e-03
1.282496744325635063e+03 3.162277660168379394e-03
1.325267803072867991e+03 5.623413251903490971e-03
1.392667228915065607e+03 1.000000000000000021e-02
1.520658195548821595e+03 1.778279410038922925e-02
1.701710873981966870e+03 3.162277660168379134e-02
1.878796075238161393e+03 5.623413251903491145e-02
2.023179568998951027e+03 1.000000000000000056e-01
2.181510075898394007e+03 1.778279410038922925e-01
2.397378531091360401e+03 3.162277660168379412e-01
2.623270031061644659e+03 5.623413251903490728e-01
2.829396125814229435e+03 1.000000000000000000e+00
3.034494967154446840e+03 1.778279410038922759e+00
3.243910279166340388e+03 3.162277660168379523e+00
3.461583018895731584e+03 5.623413251903491172e+00
3.692231419552627358e+03 1.000000000000000000e+01
3.941270284324049044e+03 1.778279410038922848e+01
4.216510849434534066e+03 3.162277660168379256e+01
4.523493151220764048e+03 5.623413251903490817e+01
4.870053339870741183e+03 1.000000000000000000e+02
5.260119540340376261e+03 1.778279410038922776e+02
5.717616357257403251e+03 3.162277660168379612e+02
