# Wavelength (micrometer), Flux (W / m2 / m)
1.000553076518779783e-01 3.434596078477904053e+11
1.004555288824854897e-01 2.195155977861482812e+13
1.008573509980154326e-01 2.278279936158050391e+13
1.012607804020075053e-01 2.364010800154217578e+13
1.016658235236155422e-01 2.452415664788212109e+13
1.020724868177099870e-01 2.543548228014502344e+13
1.024807767649808382e-01 2.636409023406980078e+13
1.028906998720407612e-01 2.734190054289085156e+13
1.033022626715289355e-01 2.833978866795015625e+13
1.037154717222150413e-01 2.925465048693821484e+13
1.041303336091038839e-01 3.042396568405011328e+13
1.045468549435403099e-01 3.151221412611298438e+13
1.049650423633144702e-01 3.263253711350612891e+13
1.053849025327677214e-01 3.378356883684239844e+13
1.058064421428987906e-01 3.497075082816958984e+13
1.062296679114703990e-01 3.617406572695011719e+13
1.066545865831162732e-01 3.743022034855546094e+13
1.070812049294487533e-01 3.873000098682981250e+13
1.075095297491665408e-01 4.004178952605710938e+13
1.079395678681632220e-01 4.141988913170445312e+13
1.083713261396358624e-01 4.281116684615998438e+13
1.088048114441943909e-01 4.424704289011139062e+13
1.092400306899711654e-01 4.572556980875475000e+13
1.096769908127310511e-01 4.721076073331179688e+13
1.101156987759819850e-01 4.878609507757872656e+13
1.105561615710859147e-01 5.038968320730289844e+13
1.109983862173702651e-01 5.202340294096239062e+13
1.114423797622397516e-01 5.370320612925146875e+13
1.118881492812886930e-01 5.542533952414292969e+13
1.123357018784138517e-01 5.716756852160147656e+13
1.127850446859275102e-01 5.896370883292551562e+13
1.132361848646712132e-01 6.083541280661876562e+13
1.136891296041298988e-01 6.274362120083605469e+13
1.141438861225464035e-01 6.468213053230166406e+13
1.146004616670366072e-01 6.660876045647893750e+13
1.150588635137047705e-01 6.868686001241473438e+13
1.155190989677595953e-01 7.079844291967307812e+13
1.159811753636306314e-01 7.294760056487476562e+13
1.164451000650851553e-01 7.513395898848064062e+13
1.169108804653455069e-01 7.736506175776223438e+13
1.173785239872068981e-01 7.965552388266914062e+13
1.178480380831557206e-01 8.199451741216143750e+13
1.183194302354883543e-01 8.438373034227857812e+13
1.187927079564302935e-01 8.682727569999387500e+13
1.192678787882560099e-01 8.932230512157653125e+13
1.197449503034090645e-01 9.187594173318485938e+13
1.202239301046226783e-01 9.448171856827517188e+13
1.207048258250411760e-01 9.714288665802823438e+13
1.211876451283413342e-01 9.985854050803031250e+13
1.216723957088547137e-01 1.025445377342538125e+14
1.221590852916901310e-01 1.054638664862491875e+14
1.226477216328568792e-01 1.083518496263438750e+14
1.231383125193883099e-01 1.112987791800191094e+14
1.236308657694658586e-01 1.143037460609461562e+14
1.241253892325437369e-01 1.173678962140890000e+14
1.246218907894739159e-01 1.204936121666167344e+14
1.251203783526317892e-01 1.236786210698427344e+14
1.256208598660423226e-01 1.269245511410804688e+14
1.261233433055065078e-01 1.302148575927355156e+14
1.266278366787285392e-01 1.335800438892620625e+14
1.271343480254434610e-01 1.370175327711243281e+14
1.276428854175452321e-01 1.405089436993889844e+14
1.281534569592154005e-01 1.440824257253362500e+14
1.286660707870522780e-01 1.477054102134714688e+14
1.291807350702004475e-01 1.513905851441098750e+14
1.296974580104812425e-01 1.551395318006382500e+14
1.302162478425231973e-01 1.589255802865908125e+14
1.307371128338932764e-01 1.628135628996300312e+14
1.312600612852288795e-01 1.667781896037154375e+14
1.317851015303697915e-01 1.707885513374283125e+14
1.323122419364912705e-01 1.748648735598673125e+14
1.328414909042372472e-01 1.790042836322877188e+14
1.333728568678542170e-01 1.825175946753633750e+14
1.339063482953256612e-01 1.874923985257141562e+14
1.344419736885069383e-01 1.918343115113357188e+14
1.349797415832609815e-01 1.962446142429322500e+14
1.355196605495940232e-01 2.007215287387344688e+14
1.360617391917924301e-01 2.052654984142820938e+14
1.366059861485595939e-01 2.098771476387742188e+14
1.371524100931538481e-01 2.145565114578154062e+14
1.377010197335264696e-01 2.193037674360689688e+14
1.382518238124605670e-01 2.241188424587977812e+14
1.388048311077104136e-01 2.290011946029306250e+14
1.393600504321412248e-01 2.339511251293264375e+14
1.399174906338697677e-01 2.389687787961777500e+14
1.404771605964052761e-01 2.440497324784080938e+14
1.410390692387908651e-01 2.492048033905902188e+14
1.416032255157460562e-01 2.544260345030575312e+14
1.421696384178090522e-01 2.597140678556887500e+14
1.427383169714803168e-01 2.650655556534471562e+14
1.433092702393662099e-01 2.704850355239480938e+14
1.438825073203236771e-01 2.759778271202831875e+14
1.444580373496049674e-01 2.815306874256432500e+14
1.450358694990033503e-01 2.871540090914070000e+14
1.456160129769993872e-01 2.928407041349419375e+14
1.461984770289073976e-01 2.985926079435335625e+14
1.467832709370230082e-01 3.044103938205490625e+14
1.473704040207710897e-01 3.102925596824274375e+14
1.479598856368541382e-01 3.162392517808721250e+14
1.485517251794015725e-01 3.222500177673370000e+14
1.491459320801191979e-01 3.283242103601215625e+14
1.497425158084396690e-01 3.344614566331025000e+14
1.503414858716734248e-01 3.406612197886343750e+14
1.509428518151600951e-01 3.469229763747518125e+14
1.515466232224207677e-01 3.532460665809185000e+14
1.521528097153104220e-01 3.596295467861159375e+14
1.527614209541716672e-01 3.660742054894617500e+14
1.533724666379883694e-01 3.725781057113540625e+14
1.539859565045403056e-01 3.791404860527835000e+14
1.546019003305584838e-01 3.857602822972306875e+14
1.552203079318807133e-01 3.924260387501308750e+14
1.558411891636082569e-01 3.991032583173036250e+14
1.564645539202626778e-01 4.058183515284551250e+14
1.570904121359437411e-01 4.127492204368518125e+14
1.577187737844875093e-01 4.196394349396309375e+14
1.583496488796254653e-01 4.265582451565561875e+14
1.589830474751439959e-01 4.336510416027288750e+14
1.596189796650445414e-01 4.407238580740251250e+14
1.602574555837047166e-01 4.478270734880935625e+14
1.608984854060395708e-01 4.548501178935315625e+14
1.615420793476636807e-01 4.620349189472099375e+14
1.621882476650543525e-01 4.693493458384076875e+14
1.628370006557145755e-01 4.765637063032460000e+14
1.634883486583374457e-01 4.839077285440973125e+14
1.641423020529707844e-01 4.913728942123272500e+14
1.647988712611826723e-01 4.988759646557406250e+14
1.654580667462274002e-01 5.063401080848890625e+14
1.661198990132123077e-01 5.137821213675752500e+14
1.667843786092651215e-01 5.213676779126085625e+14
1.674515161237022098e-01 5.289936598652021875e+14
1.681213221881969755e-01 5.366605737822847500e+14
1.687938074769497754e-01 5.442825293823925625e+14
1.694689827068575905e-01 5.520042426636933750e+14
1.701468586376850278e-01 5.596527014275643750e+14
1.708274460722357391e-01 5.674779743497225000e+14
1.715107558565246715e-01 5.752610965604237500e+14
1.721967988799507909e-01 5.831140044604308750e+14
1.728855860754705820e-01 5.909838581521088750e+14
1.735771284197724640e-01 5.988808150507303750e+14
1.742714369334515678e-01 6.067844987820406250e+14
1.749685226811853456e-01 6.147104825377680000e+14
1.756683967719100681e-01 6.226597865297573750e+14
1.763710703589977391e-01 6.306277028813356250e+14
1.770765546404337309e-01 6.386167681734408750e+14
1.777848608589954471e-01 6.466228701321006250e+14
1.784960003024314568e-01 6.546433119321890000e+14
1.792099843036411844e-01 6.626805693714770000e+14
1.799268242408557650e-01 6.707298926962693750e+14
1.806465315378191772e-01 6.787902322644943750e+14
1.813691176639704306e-01 6.868606217551186250e+14
1.820945941346263086e-01 6.949376322733615000e+14
1.828229725111648329e-01 7.030230579242836250e+14
1.835542644012094771e-01 7.111075189280550000e+14
1.842884814588143239e-01 7.191989850369647500e+14
1.850256353846495561e-01 7.273020929526366250e+14
1.857657379261881403e-01 7.353944764036443750e+14
1.865088008778928996e-01 7.434918940626280000e+14
1.872548360814044743e-01 7.515827828296047500e+14
1.880038554257300876e-01 7.596670203917026250e+14
1.887558708474330049e-01 7.677480080817862500e+14
1.895108943308226879e-01 7.758188524292523750e+14
1.902689379081460019e-01 7.838782461971647500e+14
1.910300136597785636e-01 7.919275233971941250e+14
1.917941337144176972e-01 7.999680089414810000e+14
1.925613102492753359e-01 8.079902337446492500e+14
1.933315554902724498e-01 8.159946807458002500e+14
1.941048817122335568e-01 8.239837083444835000e+14
1.948813012390824828e-01 8.319513653194605000e+14
1.956608264440388156e-01 8.398975447054550000e+14
1.964434697498149418e-01 8.478205018972115000e+14
1.972292436288141937e-01 8.557185894772633750e+14
1.980181606033294406e-01 8.635903212692416250e+14
1.988102332457427346e-01 8.714337895410170000e+14
1.996054741787257336e-01 8.792473718758911250e+14
2.004038960754406518e-01 8.870282592152802500e+14
2.012055116597424309e-01 8.947765840466987500e+14
2.020103337063813842e-01 9.024913985146508750e+14
2.028183750412069219e-01 9.101705097632852500e+14
2.036296485413717494e-01 9.178097620736212500e+14
2.044441671355372303e-01 9.254096412809340000e+14
2.052619438040793887e-01 9.329682611318048750e+14
2.060829915792957157e-01 9.404845535853427500e+14
2.069073235456129201e-01 9.479563780604237500e+14
2.077349528397953449e-01 9.553816315952080000e+14
2.085658926511545219e-01 9.627598038497263750e+14
2.094001562217591150e-01 9.700883379443925000e+14
2.102377568466461677e-01 9.773666079201377500e+14
2.110787078740327671e-01 9.845920066572437500e+14
2.119230227055288740e-01 9.917641826609352500e+14
2.127707147963510126e-01 9.988808470930826250e+14
2.136217976555363773e-01 1.005938906234505625e+15
2.144762848461585492e-01 1.012941314768479125e+15
2.153341899855431840e-01 1.019884224286292000e+15
2.161955267454853669e-01 1.026764459575190125e+15
2.170603088524672986e-01 1.033583879419290875e+15
2.179285500878772042e-01 1.040338211534844375e+15
2.188002642882286852e-01 1.047027535871754625e+15
2.196754653453815986e-01 1.053650249230863375e+15
2.205541672067631020e-01 1.060204523391114875e+15
2.214363838755901703e-01 1.066689535765495250e+15
2.223221294110925284e-01 1.073103786282646125e+15
2.232114179287369160e-01 1.079446212328376125e+15
2.241042636004518529e-01 1.085713579708044250e+15
2.250006806548536520e-01 1.091831490607531500e+15
2.259006833774730438e-01 1.097993694564253125e+15
2.268042861109829667e-01 1.104042696202290750e+15
2.277115032554268836e-01 1.110019823203785625e+15
2.286223492684485714e-01 1.115921395880971750e+15
2.295368386655223802e-01 1.121726226026326125e+15
2.304549860201844658e-01 1.127449608473020750e+15
2.313768059642651864e-01 1.133090354318823500e+15
2.323023131881222503e-01 1.138556938543679750e+15
2.332315224408747223e-01 1.143807465555686500e+15
2.341644485306381973e-01 1.148882409303258750e+15
2.351011063247607502e-01 1.154393344004857750e+15
2.360415107500598020e-01 1.159432446347580000e+15
2.369856767930600405e-01 1.164892027781264000e+15
2.379336195002322851e-01 1.169241280363227250e+15
2.388853539782332114e-01 1.174795328731752500e+15
2.398408953941461863e-01 1.179248702960181250e+15
2.408002589757227141e-01 1.183670573340175000e+15
2.417634600116256582e-01 1.189252658031132500e+15
2.427305138516721306e-01 1.193981406625787750e+15
2.437014359070788505e-01 1.198463234290712000e+15
2.446762416507071713e-01 1.202844139297698500e+15
2.456549466173099938e-01 1.207140095121799750e+15
2.466375664037792625e-01 1.211333069984596500e+15
2.476241166693943785e-01 1.215428432017315250e+15
2.486146131360719436e-01 1.219425760201145250e+15
2.496090715886161993e-01 1.223327497284338250e+15
2.506075078749706586e-01 1.227133501308236250e+15
2.516099379064705155e-01 1.230836084582007500e+15
2.526163776580964138e-01 1.234436880433894500e+15
2.536268431687287994e-01 1.237941853786425750e+15
2.546413505414037437e-01 1.241347605559814000e+15
2.556599159435693491e-01 1.244651872684190750e+15
2.566825556073435988e-01 1.247758318554760500e+15
2.577092858297729827e-01 1.250943543221984500e+15
2.587401229730920682e-01 1.253622938784158000e+15
2.597750834649844576e-01 1.256116481327286750e+15
2.608141837988444123e-01 1.258996988338398500e+15
2.618574405340398092e-01 1.261856739382186000e+15
2.629048702961759298e-01 1.264137634947968750e+15
2.639564897773606367e-01 1.267392623333943750e+15
2.650123157364701054e-01 1.269771840151483500e+15
2.660723649994159445e-01 1.272047381660815750e+15
2.671366544594135917e-01 1.274219332718915500e+15
2.682052010772512096e-01 1.276287551926316500e+15
2.692780218815602478e-01 1.278251564141808500e+15
2.703551339690865030e-01 1.280112463176705750e+15
2.714365545049627904e-01 1.281852392508490750e+15
2.725223007229827243e-01 1.283505622748184500e+15
2.736123899258746106e-01 1.284987216917866750e+15
2.747068394855781692e-01 1.286225032106141750e+15
2.758056668435204806e-01 1.287756963361754500e+15
2.769088895108945403e-01 1.289096065726011000e+15
2.780165250689380918e-01 1.290232404626862000e+15
2.791285911692138466e-01 1.290398045242879250e+15
2.802451055338907038e-01 1.291358406478532750e+15
2.813660859560263017e-01 1.293020904744389750e+15
2.824915502998503469e-01 1.293745220763584000e+15
2.836215165010497197e-01 1.294367193745001000e+15
2.847560025670539119e-01 1.294887144321475000e+15
2.858950265773221866e-01 1.295306541029282000e+15
2.870386066836315142e-01 1.295624178215490500e+15
2.881867611103660631e-01 1.295840111302642750e+15
2.893395081548075787e-01 1.295957878271298250e+15
2.904968661874267610e-01 1.295974676333012500e+15
2.916588536521764197e-01 1.295891797543688750e+15
2.928254890667851273e-01 1.295707243896715500e+15
2.939967910230522619e-01 1.295428742182101750e+15
2.951727781871444911e-01 1.295047175251209250e+15
2.963534692998930908e-01 1.294574229719001750e+15
2.975388831770926501e-01 1.294000135924448250e+15
2.987290387098009981e-01 1.293329314037654750e+15
2.999239548646402409e-01 1.292566175801403000e+15
3.011236506840988536e-01 1.291706229136050250e+15
3.023281452868351593e-01 1.290750898582852500e+15
3.035374578679824742e-01 1.289701554463571500e+15
3.047516076994544187e-01 1.288558842132307250e+15
3.059706141302522830e-01 1.287323316088181750e+15
3.071944965867733357e-01 1.285991633526225750e+15
3.084232745731204095e-01 1.284571400511993000e+15
3.096569676714128194e-01 1.283068044079889250e+15
3.108955955420985018e-01 1.281468839342956250e+15
3.121391779242668751e-01 1.279780658655083750e+15
3.133877346359639215e-01 1.278004058479619500e+15
3.146412855745078230e-01 1.276139649274525250e+15
3.158998507168058190e-01 1.274187265033826250e+15
3.171634501196730627e-01 1.272151892241549250e+15
3.184321039201517545e-01 1.270029530315562750e+15
3.197058323358323295e-01 1.267823342043976500e+15
3.209846556651756444e-01 1.265534248388163250e+15
3.222685942878363852e-01 1.263160081163633000e+15
3.235576686649877520e-01 1.260696277160610000e+15
3.248518993396476984e-01 1.258172223071393000e+15
3.261513069370062801e-01 1.255559511859303250e+15
3.274559121647543369e-01 1.252865743849676750e+15
3.287657358134133401e-01 1.250094296030413750e+15
3.300807987566670154e-01 1.247245447451764500e+15
3.314011219516936890e-01 1.244320288476265250e+15
3.327267264395004642e-01 1.241317966279476250e+15
3.340576333452584534e-01 1.238243658836745750e+15
3.353938638786395088e-01 1.235093198752266250e+15
3.367354393341540630e-01 1.231867822594344000e+15
3.380823810914907468e-01 1.228582836705594500e+15
3.394347106158566718e-01 1.225221461673981250e+15
3.407924494583201014e-01 1.221791125724984250e+15
3.421556192561533982e-01 1.218290968725696500e+15
3.435242417331779707e-01 1.214723313862754000e+15
3.448983387001106626e-01 1.211089029879803750e+15
3.462779320549111417e-01 1.207389545710116000e+15
3.476630437831307319e-01 1.203625622743460000e+15
3.490536959582632992e-01 1.199798318115874250e+15
3.504499107420963600e-01 1.195908687595186750e+15
3.518517103850647421e-01 1.191957718099783750e+15
3.532591172266050239e-01 1.187946408912563000e+15
3.546721536955114717e-01 1.183875845612917250e+15
3.560908423102934761e-01 1.179747059132197000e+15
3.575152056795346533e-01 1.175561090821394250e+15
3.589452665022527800e-01 1.171318991997539750e+15
3.603810475682617254e-01 1.167021841028615250e+15
3.618225717585348278e-01 1.162670622291563000e+15
3.632698620455689364e-01 1.158266424006441750e+15
3.647229414937512293e-01 1.153810272548088000e+15
3.661818332597261971e-01 1.149303235138012250e+15
3.676465605927651259e-01 1.144746365575881000e+15
3.691171468351361895e-01 1.140139978931102000e+15
3.705936154224767076e-01 1.135487205455004250e+15
3.720759898841666247e-01 1.130787129945458750e+15
3.735642938437032656e-01 1.126041249137293250e+15
3.750585510190780902e-01 1.121250994470792125e+15
3.765587852231543908e-01 1.116415687857063375e+15
3.780650203640470441e-01 1.111540593127443375e+15
3.795772804455032068e-01 1.106622644514703250e+15
3.810955895672852312e-01 1.101664233662073000e+15
3.826199719255543585e-01 1.096666426422472125e+15
3.841504518132565771e-01 1.091630223346922750e+15
3.856870536205096456e-01 1.086556663592099750e+15
3.872298018349916715e-01 1.081446767362132625e+15
3.887787210423316320e-01 1.076301551101061375e+15
3.903338359265008939e-01 1.071122013921888625e+15
3.918951712702069545e-01 1.065909212483872125e+15
3.934627519552877928e-01 1.060242325481296375e+15
3.950366029631089404e-01 1.055387758927019625e+15
3.966167493749613859e-01 1.049744472450522250e+15
3.982032163724612550e-01 1.044745125277456750e+15
3.997960292379510450e-01 1.039380849413763375e+15
4.013952133549028578e-01 1.033989234713947875e+15
4.030007942083224659e-01 1.028571275318742250e+15
4.046127973851557647e-01 1.023127924918597500e+15
4.062312485746963908e-01 1.017660144600717625e+15
4.078561735689951728e-01 1.012168892690417500e+15
4.094875982632711353e-01 1.006655117002645000e+15
4.111255486563242245e-01 1.001119760006417250e+15
4.127700508509495880e-01 9.955637563350550000e+14
4.144211310543532978e-01 9.899880354553326250e+14
4.160788155785707931e-01 9.843935156744100000e+14
4.177431308408850463e-01 9.787811030161996250e+14
4.194141033642486138e-01 9.731517327956337500e+14
4.210917597777056320e-01 9.675062711595143750e+14
4.227761268168164221e-01 9.618456090027435000e+14
4.244672313240837602e-01 9.561706600202716250e+14
4.261651002493800910e-01 9.504822671921536250e+14
4.278697606503775730e-01 9.447813070245141250e+14
4.295812396929790666e-01 9.390686120472653750e+14
4.312995646517510107e-01 9.333450937623525000e+14
4.330247629103580187e-01 9.276115529039415000e+14
4.347568619619994745e-01 9.218688163838882500e+14
4.364958894098474596e-01 9.161177193248943750e+14
4.382418729674867897e-01 9.103590676214072500e+14
4.399948404593567730e-01 9.045936598368062500e+14
4.417548198211941890e-01 8.988223300402578750e+14
4.435218391004789873e-01 8.930458188345883750e+14
4.452959264568808750e-01 8.872649461641825000e+14
4.470771101627084021e-01 8.814804405694328750e+14
4.488654186033592119e-01 8.756931062897146250e+14
4.506608802777726241e-01 8.699036450903980000e+14
4.524635237988837710e-01 8.641128470258095000e+14
4.542733778940792333e-01 8.583213896980645000e+14
4.560904714056555065e-01 8.525300639587335000e+14
4.579148332912781894e-01 8.467395249333225000e+14
4.597464926244433370e-01 8.409505034043578750e+14
4.615854785949410899e-01 8.351636784253257500e+14
4.634318205093208576e-01 8.293797383868818750e+14
4.652855477913582227e-01 8.235993608252738750e+14
4.671466899825236219e-01 8.178232075008275000e+14
4.690152767424536906e-01 8.120519337026803750e+14
4.708913378494234969e-01 8.062861842221390000e+14
4.727749032008212171e-01 8.005265947001666250e+14
4.746660028136244769e-01 7.947737899583685000e+14
4.765646668248789131e-01 7.890283855478803750e+14
4.784709254921784560e-01 7.832909880062198750e+14
4.803848091941470555e-01 7.775621920416313750e+14
4.823063484309236815e-01 7.718425858715466250e+14
4.842355738246474361e-01 7.661327441167858750e+14
4.861725161199459966e-01 7.604332339919001250e+14
4.881172061844257226e-01 7.547446125774157500e+14
4.900696750091634302e-01 7.490674269112441250e+14
