# Wavelength (micrometer), Flux (W / m2 / m)
1.000553076518779783e-01 1.060923980536018677e+12
1.004555288824854897e-01 2.195171876853137500e+13
1.008573509980154326e-01 2.278297704851569922e+13
1.012607804020075053e-01 2.363886093203044922e+13
1.016658235236155422e-01 2.452322095985442578e+13
1.020724868177099870e-01 2.543305517146020703e+13
1.024807767649808382e-01 2.624334812325446484e+13
1.028906998720407612e-01 2.726397428721106641e+13
1.033022626715289355e-01 2.833916736450239453e+13
1.037154717222150413e-01 2.925516673458427344e+13
1.041303336091038839e-01 3.042268846747170312e+13
1.045468549435403099e-01 3.150366296087560938e+13
1.049650423633144702e-01 3.262698178138102344e+13
1.053849025327677214e-01 3.374360554545734375e+13
1.058064421428987906e-01 3.495614834617751953e+13
1.062296679114703990e-01 3.605599473555714062e+13
1.066545865831162732e-01 3.734805823958947656e+13
1.070812049294487533e-01 3.867080349474960938e+13
1.075095297491665408e-01 3.988945681290208594e+13
1.079395678681632220e-01 4.141706721232373438e+13
1.083713261396358624e-01 4.274536796097391406e+13
1.088048114441943909e-01 4.418042175495830469e+13
1.092400306899711654e-01 4.564692308627199219e+13
1.096769908127310511e-01 4.703449843976627344e+13
1.101156987759819850e-01 4.858393013241752344e+13
1.105561615710859147e-01 5.027734074114450781e+13
1.109983862173702651e-01 5.186542818316518750e+13
1.114423797622397516e-01 5.358229584877567969e+13
1.118881492812886930e-01 5.535586533922647656e+13
1.123357018784138517e-01 5.700974216296538281e+13
1.127850446859275102e-01 5.856942743002438281e+13
1.132361848646712132e-01 6.061751948692692969e+13
1.136891296041298988e-01 6.255392129687923438e+13
1.141438861225464035e-01 6.452080419163940625e+13
1.146004616670366072e-01 6.640207123355631250e+13
1.150588635137047705e-01 6.841059563912556250e+13
1.155190989677595953e-01 7.068059680394981250e+13
1.159811753636306314e-01 7.286552864147793750e+13
1.164451000650851553e-01 7.512251900861415625e+13
1.169108804653455069e-01 7.725015935718625000e+13
1.173785239872068981e-01 7.960942635499567188e+13
1.178480380831557206e-01 8.197587393513575000e+13
1.183194302354883543e-01 8.431786426677432812e+13
1.187927079564302935e-01 8.674217659143304688e+13
1.192678787882560099e-01 8.909095392112484375e+13
1.197449503034090645e-01 9.185557790280570312e+13
1.202239301046226783e-01 9.447052652186945312e+13
1.207048258250411760e-01 9.714080301092253125e+13
1.211876451283413342e-01 9.979937306712692188e+13
1.216723957088547137e-01 1.025667263634861250e+14
1.221590852916901310e-01 1.054618567023762969e+14
1.226477216328568792e-01 1.083352179989476406e+14
1.231383125193883099e-01 1.112965695126010469e+14
1.236308657694658586e-01 1.142814615646502812e+14
1.241253892325437369e-01 1.173219193415809531e+14
1.246218907894739159e-01 1.204938370485858906e+14
1.251203783526317892e-01 1.236769810203532656e+14
1.256208598660423226e-01 1.269186698399192031e+14
1.261233433055065078e-01 1.298403567012738906e+14
1.266278366787285392e-01 1.334226063804308438e+14
1.271343480254434610e-01 1.368172897645653438e+14
1.276428854175452321e-01 1.398851489308650156e+14
1.281534569592154005e-01 1.437991750191655312e+14
1.286660707870522780e-01 1.476982948990884375e+14
1.291807350702004475e-01 1.513878446304400312e+14
1.296974580104812425e-01 1.551135322408299375e+14
1.302162478425231973e-01 1.588556883069966250e+14
1.307371128338932764e-01 1.623646502615193438e+14
1.312600612852288795e-01 1.667751809955714688e+14
1.317851015303697915e-01 1.707878422558580938e+14
1.323122419364912705e-01 1.748642771036745312e+14
1.328414909042372472e-01 1.786016979011004375e+14
1.333728568678542170e-01 1.826444425366223125e+14
1.339063482953256612e-01 1.874909681718415625e+14
1.344419736885069383e-01 1.918070418973086250e+14
1.349797415832609815e-01 1.962449300547871562e+14
1.355196605495940232e-01 2.007144213367542500e+14
1.360617391917924301e-01 2.052426990618972812e+14
1.366059861485595939e-01 2.098479144641487812e+14
1.371524100931538481e-01 2.145261242905100938e+14
1.377010197335264696e-01 2.192848893693110312e+14
1.382518238124605670e-01 2.241164940824211250e+14
1.388048311077104136e-01 2.290004082650174688e+14
1.393600504321412248e-01 2.339412320525072812e+14
1.399174906338697677e-01 2.389591819346717812e+14
1.404771605964052761e-01 2.438911336845475312e+14
1.410390692387908651e-01 2.491113452196814062e+14
1.416032255157460562e-01 2.543677721399308438e+14
1.421696384178090522e-01 2.596847292862069062e+14
1.427383169714803168e-01 2.649241865645137500e+14
1.433092702393662099e-01 2.702439041323464375e+14
1.438825073203236771e-01 2.759327454806995312e+14
1.444580373496049674e-01 2.814177138157529688e+14
1.450358694990033503e-01 2.871487961939451875e+14
1.456160129769993872e-01 2.928353442096468125e+14
1.461984770289073976e-01 2.985580461829458750e+14
1.467832709370230082e-01 3.044038409583108125e+14
1.473704040207710897e-01 3.102878366362250625e+14
1.479598856368541382e-01 3.162311574876238125e+14
1.485517251794015725e-01 3.222502628753998125e+14
1.491459320801191979e-01 3.283240664716136250e+14
1.497425158084396690e-01 3.344611222080252500e+14
1.503414858716734248e-01 3.406603320599155625e+14
1.509428518151600951e-01 3.469211575293373750e+14
1.515466232224207677e-01 3.532382220154793750e+14
1.521528097153104220e-01 3.595925512002096250e+14
1.527614209541716672e-01 3.660608092505180000e+14
1.533724666379883694e-01 3.725768337729919375e+14
1.539859565045403056e-01 3.791390931864669375e+14
1.546019003305584838e-01 3.857137878542355000e+14
1.552203079318807133e-01 3.919045781126846875e+14
1.558411891636082569e-01 3.972385060836845625e+14
1.564645539202626778e-01 4.055689123396206250e+14
1.570904121359437411e-01 4.118975335939010625e+14
1.577187737844875093e-01 4.188943411839123750e+14
1.583496488796254653e-01 4.263126854901345000e+14
1.589830474751439959e-01 4.332338482769604375e+14
1.596189796650445414e-01 4.407075135676845625e+14
1.602574555837047166e-01 4.476513941884769375e+14
1.608984854060395708e-01 4.544700120998147500e+14
1.615420793476636807e-01 4.618123056518090000e+14
1.621882476650543525e-01 4.683627393963658125e+14
1.628370006557145755e-01 4.751002670062480000e+14
1.634883486583374457e-01 4.825426668767640000e+14
1.641423020529707844e-01 4.905518675810676250e+14
1.647988712611826723e-01 4.979262331523311250e+14
1.654580667462274002e-01 5.043354171765598125e+14
1.661198990132123077e-01 5.123574823558794375e+14
1.667843786092651215e-01 5.206633844652565000e+14
1.674515161237022098e-01 5.280613951188198750e+14
1.681213221881969755e-01 5.362713952803130000e+14
1.687938074769497754e-01 5.431244012240080625e+14
1.694689827068575905e-01 5.510530815966056875e+14
1.701468586376850278e-01 5.590790680712085625e+14
1.708274460722357391e-01 5.666572343671157500e+14
1.715107558565246715e-01 5.743863641841172500e+14
1.721967988799507909e-01 5.823592502622152500e+14
1.728855860754705820e-01 5.904257408101515000e+14
1.735771284197724640e-01 5.988307029507050000e+14
1.742714369334515678e-01 6.067618440704695000e+14
1.749685226811853456e-01 6.146583421837107500e+14
1.756683967719100681e-01 6.226433902144340000e+14
1.763710703589977391e-01 6.305481212043197500e+14
1.770765546404337309e-01 6.385811074350913750e+14
1.777848608589954471e-01 6.466104605796345000e+14
1.784960003024314568e-01 6.545674594183476250e+14
1.792099843036411844e-01 6.626592924979403750e+14
1.799268242408557650e-01 6.707197239515508750e+14
1.806465315378191772e-01 6.787732026267380000e+14
1.813691176639704306e-01 6.868505011397220000e+14
1.820945941346263086e-01 6.948549721786217500e+14
1.828229725111648329e-01 7.029555536296661250e+14
1.835542644012094771e-01 7.107931915257350000e+14
1.842884814588143239e-01 7.188176625337651250e+14
1.850256353846495561e-01 7.272222959773978750e+14
1.857657379261881403e-01 7.352076603848481250e+14
1.865088008778928996e-01 7.434665484176265000e+14
1.872548360814044743e-01 7.515667440493297500e+14
1.880038554257300876e-01 7.595689375729872500e+14
1.887558708474330049e-01 7.677264498287603750e+14
1.895108943308226879e-01 7.757729214354268750e+14
1.902689379081460019e-01 7.837280368653615000e+14
1.910300136597785636e-01 7.917391768480321250e+14
1.917941337144176972e-01 7.999546724469256250e+14
1.925613102492753359e-01 8.079725955062890000e+14
1.933315554902724498e-01 8.158546704499910000e+14
1.941048817122335568e-01 8.239825319189742500e+14
1.948813012390824828e-01 8.319489009873040000e+14
1.956608264440388156e-01 8.398957774084702500e+14
1.964434697498149418e-01 8.478163049495312500e+14
1.972292436288141937e-01 8.557105530709385000e+14
1.980181606033294406e-01 8.635846905176058750e+14
1.988102332457427346e-01 8.714276874278137500e+14
1.996054741787257336e-01 8.792416519284680000e+14
2.004038960754406518e-01 8.869583676135006250e+14
2.012055116597424309e-01 8.946721444989662500e+14
2.020103337063813842e-01 9.024173478025278750e+14
2.028183750412069219e-01 9.101570132838857500e+14
2.036296485413717494e-01 9.177757728005412500e+14
2.044441671355372303e-01 9.253648856214276250e+14
2.052619438040793887e-01 9.329132612791865000e+14
2.060829915792957157e-01 9.404467212486891250e+14
2.069073235456129201e-01 9.479359173924720000e+14
2.077349528397953449e-01 9.553514674162403750e+14
2.085658926511545219e-01 9.627468127693946250e+14
2.094001562217591150e-01 9.700692607478468750e+14
2.102377568466461677e-01 9.773637804773513750e+14
2.110787078740327671e-01 9.845734369877797500e+14
2.119230227055288740e-01 9.917579226073578750e+14
2.127707147963510126e-01 9.988663132092838750e+14
2.136217976555363773e-01 1.005835982395907000e+15
2.144762848461585492e-01 1.012870603560930250e+15
2.153341899855431840e-01 1.019857038995300625e+15
2.161955267454853669e-01 1.026699814042610875e+15
2.170603088524672986e-01 1.033570670381297250e+15
2.179285500878772042e-01 1.040317204357780125e+15
2.188002642882286852e-01 1.047014244037209750e+15
2.196754653453815986e-01 1.053648660913575500e+15
2.205541672067631020e-01 1.060189608072419375e+15
2.214363838755901703e-01 1.066657512262019250e+15
2.223221294110925284e-01 1.073074978440491375e+15
2.232114179287369160e-01 1.079414116829893500e+15
2.241042636004518529e-01 1.085583587379013125e+15
2.250006806548536520e-01 1.090204230402619500e+15
2.259006833774730438e-01 1.096815226661783500e+15
2.268042861109829667e-01 1.103120127774782750e+15
2.277115032554268836e-01 1.109428326774876250e+15
2.286223492684485714e-01 1.115906037084204875e+15
2.295368386655223802e-01 1.121717931698859750e+15
2.304549860201844658e-01 1.127444505510067000e+15
2.313768059642651864e-01 1.133085159571843000e+15
2.323023131881222503e-01 1.137618577560249500e+15
2.332315224408747223e-01 1.143662929988899250e+15
2.341644485306381973e-01 1.147105071434696250e+15
2.351011063247607502e-01 1.153801079433720000e+15
2.360415107500598020e-01 1.157557773349343250e+15
2.369856767930600405e-01 1.163383573283036500e+15
2.379336195002322851e-01 1.167044729204504000e+15
2.388853539782332114e-01 1.173739032556639250e+15
2.398408953941461863e-01 1.178141090107949000e+15
2.408002589757227141e-01 1.183038535704252000e+15
2.417634600116256582e-01 1.188551510156563750e+15
2.427305138516721306e-01 1.193883485421865750e+15
2.437014359070788505e-01 1.198404739106775500e+15
2.446762416507071713e-01 1.202537231974486750e+15
2.456549466173099938e-01 1.207100370008128250e+15
2.466375664037792625e-01 1.211232164372864750e+15
2.476241166693943785e-01 1.215239369470310750e+15
2.486146131360719436e-01 1.219126002917821500e+15
2.496090715886161993e-01 1.223051008400527000e+15
2.506075078749706586e-01 1.227002114666983500e+15
2.516099379064705155e-01 1.230657053614814250e+15
2.526163776580964138e-01 1.234092175228522000e+15
2.536268431687287994e-01 1.237669400659536750e+15
2.546413505414037437e-01 1.241209360731659000e+15
2.556599159435693491e-01 1.244630821995769750e+15
2.566825556073435988e-01 1.246639010102138250e+15
2.577092858297729827e-01 1.250576460227241500e+15
2.587401229730920682e-01 1.253271253464596000e+15
2.597750834649844576e-01 1.256075822741802750e+15
2.608141837988444123e-01 1.259093571637611250e+15
2.618574405340398092e-01 1.260456798821654000e+15
2.629048702961759298e-01 1.262613123417232000e+15
2.639564897773606367e-01 1.267388764178824750e+15
2.650123157364701054e-01 1.269771236302994750e+15
2.660723649994159445e-01 1.272043249655394750e+15
2.671366544594135917e-01 1.274216140875180750e+15
2.682052010772512096e-01 1.276286367498281000e+15
2.692780218815602478e-01 1.278230178061559500e+15
2.703551339690865030e-01 1.280109881093340500e+15
2.714365545049627904e-01 1.281236777095855250e+15
2.725223007229827243e-01 1.282904872859416750e+15
2.736123899258746106e-01 1.283808151089841000e+15
2.747068394855781692e-01 1.283763349763469250e+15
2.758056668435204806e-01 1.286821388081226000e+15
2.769088895108945403e-01 1.289021013725550250e+15
2.780165250689380918e-01 1.290211616503647000e+15
2.791285911692138466e-01 1.289544692270600250e+15
2.802451055338907038e-01 1.291202303523674500e+15
2.813660859560263017e-01 1.293015773590730500e+15
2.824915502998503469e-01 1.293741938695418500e+15
2.836215165010497197e-01 1.294353840801487750e+15
2.847560025670539119e-01 1.294792276635745500e+15
2.858950265773221866e-01 1.295298206021270000e+15
2.870386066836315142e-01 1.295609232783681750e+15
2.881867611103660631e-01 1.295768157421369500e+15
2.893395081548075787e-01 1.295946987797724750e+15
2.904968661874267610e-01 1.295970363099276500e+15
2.916588536521764197e-01 1.295884975983418750e+15
2.928254890667851273e-01 1.295564538154554250e+15
2.939967910230522619e-01 1.295383254149632250e+15
2.951727781871444911e-01 1.294855504291750500e+15
2.963534692998930908e-01 1.294533993426890750e+15
2.975388831770926501e-01 1.293908385611789250e+15
2.987290387098009981e-01 1.293176002436586250e+15
2.999239548646402409e-01 1.292523480069373500e+15
3.011236506840988536e-01 1.291705235169395000e+15
3.023281452868351593e-01 1.290748133445377000e+15
3.035374578679824742e-01 1.289700500044019500e+15
3.047516076994544187e-01 1.288557458533252250e+15
3.059706141302522830e-01 1.287315262644587000e+15
3.071944965867733357e-01 1.285762320898373000e+15
3.084232745731204095e-01 1.284294832287145750e+15
3.096569676714128194e-01 1.283066700928463250e+15
3.108955955420985018e-01 1.281463058255263750e+15
3.121391779242668751e-01 1.279776865148789750e+15
3.133877346359639215e-01 1.277996849256539000e+15
3.146412855745078230e-01 1.276114231621863250e+15
3.158998507168058190e-01 1.274077876795170750e+15
3.171634501196730627e-01 1.272117177029477500e+15
3.184321039201517545e-01 1.269967572197582500e+15
3.197058323358323295e-01 1.267759155571564250e+15
3.209846556651756444e-01 1.265497024414987250e+15
3.222685942878363852e-01 1.263015045489335250e+15
3.235576686649877520e-01 1.260122908271160750e+15
3.248518993396476984e-01 1.258061888954397000e+15
3.261513069370062801e-01 1.255547204252686000e+15
3.274559121647543369e-01 1.252842230391875500e+15
3.287657358134133401e-01 1.250082654949140750e+15
3.300807987566670154e-01 1.247232654563923750e+15
3.314011219516936890e-01 1.244301756581809000e+15
3.327267264395004642e-01 1.241196177221620250e+15
3.340576333452584534e-01 1.238138359026065750e+15
3.353938638786395088e-01 1.234880755391351500e+15
3.367354393341540630e-01 1.231482406826891250e+15
3.380823810914907468e-01 1.228457937165853250e+15
3.394347106158566718e-01 1.225142317291179750e+15
3.407924494583201014e-01 1.221787454363629750e+15
3.421556192561533982e-01 1.218290387427769000e+15
3.435242417331779707e-01 1.214722725888813750e+15
3.448983387001106626e-01 1.211078545790065750e+15
3.462779320549111417e-01 1.207381618547147000e+15
3.476630437831307319e-01 1.203618650169735000e+15
3.490536959582632992e-01 1.199792539097448500e+15
3.504499107420963600e-01 1.195905934552627250e+15
3.518517103850647421e-01 1.191957501118063250e+15
3.532591172266050239e-01 1.187946153474881750e+15
3.546721536955114717e-01 1.183875773171215750e+15
3.560908423102934761e-01 1.179746573393727250e+15
3.575152056795346533e-01 1.175559503962224500e+15
3.589452665022527800e-01 1.171317480954796000e+15
3.603810475682617254e-01 1.167021731774742250e+15
3.618225717585348278e-01 1.162670080533383000e+15
3.632698620455689364e-01 1.158266160586186000e+15
3.647229414937512293e-01 1.153809576579743000e+15
3.661818332597261971e-01 1.149302609229019250e+15
3.676465605927651259e-01 1.144746243621438750e+15
3.691171468351361895e-01 1.140100732724890000e+15
3.705936154224767076e-01 1.135483309190517000e+15
3.720759898841666247e-01 1.130784930469962750e+15
3.735642938437032656e-01 1.126032955539238000e+15
3.750585510190780902e-01 1.121249617500429125e+15
3.765587852231543908e-01 1.116341831155740000e+15
3.780650203640470441e-01 1.111540250303902500e+15
3.795772804455032068e-01 1.106622420406593750e+15
3.810955895672852312e-01 1.101663413817491625e+15
3.826199719255543585e-01 1.096665895868163250e+15
3.841504518132565771e-01 1.091629798735024625e+15
3.856870536205096456e-01 1.086556249953353375e+15
3.872298018349916715e-01 1.081446650029044375e+15
3.887787210423316320e-01 1.076301299478567375e+15
3.903338359265008939e-01 1.071120511981164875e+15
3.918951712702069545e-01 1.065907697285657500e+15
3.934627519552877928e-01 1.060537950535430000e+15
3.950366029631089404e-01 1.055387467861411250e+15
3.966167493749613859e-01 1.049970228497788500e+15
3.982032163724612550e-01 1.044744794575310125e+15
3.997960292379510450e-01 1.039380814937512125e+15
4.013952133549028578e-01 1.033988783461443125e+15
4.030007942083224659e-01 1.028571057840745750e+15
4.046127973851557647e-01 1.023127809560454875e+15
4.062312485746963908e-01 1.017660039761469250e+15
4.078561735689951728e-01 1.012168822487821375e+15
4.094875982632711353e-01 1.006655077682271125e+15
4.111255486563242245e-01 1.001119721419735750e+15
4.127700508509495880e-01 9.955636687388450000e+14
4.144211310543532978e-01 9.899879924213570000e+14
4.160788155785707931e-01 9.843934205377556250e+14
4.177431308408850463e-01 9.787804241456020000e+14
4.194141033642486138e-01 9.731516745067713750e+14
4.210917597777056320e-01 9.675062310719906250e+14
4.227761268168164221e-01 9.618445037737050000e+14
4.244672313240837602e-01 9.561706199678725000e+14
4.261651002493800910e-01 9.504822199783615000e+14
4.278697606503775730e-01 9.447812344765570000e+14
4.295812396929790666e-01 9.390670824247760000e+14
4.312995646517510107e-01 9.333442442811952500e+14
4.330247629103580187e-01 9.276112205398525000e+14
4.347568619619994745e-01 9.218685341171266250e+14
4.364958894098474596e-01 9.161176749243735000e+14
4.382418729674867897e-01 9.103589449043541250e+14
4.399948404593567730e-01 9.045927803423107500e+14
4.417548198211941890e-01 8.988221266068723750e+14
4.435218391004789873e-01 8.930450708957955000e+14
4.452959264568808750e-01 8.872647690430940000e+14
4.470771101627084021e-01 8.814796289662946250e+14
4.488654186033592119e-01 8.756930086660012500e+14
4.506608802777726241e-01 8.699027995834830000e+14
4.524635237988837710e-01 8.641126010934782500e+14
4.542733778940792333e-01 8.583199833449707500e+14
4.560904714056555065e-01 8.525296964375025000e+14
4.579148332912781894e-01 8.467390593404306250e+14
4.597464926244433370e-01 8.409504344214638750e+14
4.615854785949410899e-01 8.351636391459375000e+14
4.634318205093208576e-01 8.293796338518732500e+14
4.652855477913582227e-01 8.235993060541085000e+14
4.671466899825236219e-01 8.178231648216676250e+14
4.690152767424536906e-01 8.120519026648420000e+14
4.708913378494234969e-01 8.062861412727128750e+14
4.727749032008212171e-01 8.005265590290726250e+14
4.746660028136244769e-01 7.947737599174950000e+14
4.765646668248789131e-01 7.890283327917048750e+14
4.784709254921784560e-01 7.832909507061476250e+14
4.803848091941470555e-01 7.775621196183007500e+14
4.823063484309236815e-01 7.718425568330703750e+14
4.842355738246474361e-01 7.661327108375237500e+14
4.861725161199459966e-01 7.604331925666725000e+14
4.881172061844257226e-01 7.547445829140630000e+14
4.900696750091634302e-01 7.490673988370578750e+14
