# Wavelength (micrometer), Flux (W / m2 / m)
1.000553076518779783e-01 3.434132639896376343e+11
1.004555288824854897e-01 2.195155295152405078e+13
1.008573509980154326e-01 2.278279246425748438e+13
1.012607804020075053e-01 2.364008402953992188e+13
1.016658235236155422e-01 2.452413628229781250e+13
1.020724868177099870e-01 2.543544449652892578e+13
1.024807767649808382e-01 2.635351924199529688e+13
1.028906998720407612e-01 2.734051217556130078e+13
1.033022626715289355e-01 2.833977614569600000e+13
1.037154717222150413e-01 2.905644935366592578e+13
1.041303336091038839e-01 3.042394405205314062e+13
1.045468549435403099e-01 3.151209201139405078e+13
1.049650423633144702e-01 3.263245609071578906e+13
1.053849025327677214e-01 3.378252446383525000e+13
1.058064421428987906e-01 3.497052955000184766e+13
1.062296679114703990e-01 3.616189110245142969e+13
1.066545865831162732e-01 3.741935548756574219e+13
1.070812049294487533e-01 3.872769259851689062e+13
1.075095297491665408e-01 4.003010848595467969e+13
1.079395678681632220e-01 4.141984012620426562e+13
1.083713261396358624e-01 4.280627107588057031e+13
1.088048114441943909e-01 4.424177545055444531e+13
1.092400306899711654e-01 4.572297908232763281e+13
1.096769908127310511e-01 4.718360095630357031e+13
1.101156987759819850e-01 4.877836404043871094e+13
1.105561615710859147e-01 5.038786670312085938e+13
1.109983862173702651e-01 5.202023286566503906e+13
1.114423797622397516e-01 5.370115467496135156e+13
1.118881492812886930e-01 5.542423094606729688e+13
1.123357018784138517e-01 5.714876685695600000e+13
1.127850446859275102e-01 5.893884950170934375e+13
1.132361848646712132e-01 6.082384133891165625e+13
1.136891296041298988e-01 6.273928748578200781e+13
1.141438861225464035e-01 6.467296042392575781e+13
1.146004616670366072e-01 6.652173454840953906e+13
1.150588635137047705e-01 6.865672729714847656e+13
1.155190989677595953e-01 7.078820404047931250e+13
1.159811753636306314e-01 7.294691856637550000e+13
1.164451000650851553e-01 7.513378278711057812e+13
1.169108804653455069e-01 7.736189493082593750e+13
1.173785239872068981e-01 7.965476645132103125e+13
1.178480380831557206e-01 8.199423324917704688e+13
1.183194302354883543e-01 8.438266633652507812e+13
1.187927079564302935e-01 8.682632594431809375e+13
1.192678787882560099e-01 8.932083124758346875e+13
1.197449503034090645e-01 9.187564000251970312e+13
1.202239301046226783e-01 9.448153679948590625e+13
1.207048258250411760e-01 9.714282756475687500e+13
1.211876451283413342e-01 9.985767530583751562e+13
1.216723957088547137e-01 1.024151423313590156e+14
1.221590852916901310e-01 1.054638076012433594e+14
1.226477216328568792e-01 1.083515930702749219e+14
1.231383125193883099e-01 1.112987160175512188e+14
1.236308657694658586e-01 1.143034191081024375e+14
1.241253892325437369e-01 1.173671857675293906e+14
1.246218907894739159e-01 1.204935760610632500e+14
1.251203783526317892e-01 1.236785591134026406e+14
1.256208598660423226e-01 1.269244882940294844e+14
1.261233433055065078e-01 1.302025694275416719e+14
1.266278366787285392e-01 1.335640216917822344e+14
1.271343480254434610e-01 1.370066279266476406e+14
1.276428854175452321e-01 1.404968467929187188e+14
1.281534569592154005e-01 1.440811388565508750e+14
1.286660707870522780e-01 1.477052742106899688e+14
1.291807350702004475e-01 1.513905024618721875e+14
1.296974580104812425e-01 1.551391162083866250e+14
1.302162478425231973e-01 1.588682720682888125e+14
1.307371128338932764e-01 1.627737745394140312e+14
1.312600612852288795e-01 1.667781273479661250e+14
1.317851015303697915e-01 1.707884970289735000e+14
1.323122419364912705e-01 1.748648192163648125e+14
1.328414909042372472e-01 1.790022709605917812e+14
1.333728568678542170e-01 1.810744388726240625e+14
1.339063482953256612e-01 1.874923375766474375e+14
1.344419736885069383e-01 1.918338708751575312e+14
1.349797415832609815e-01 1.962445652284579688e+14
1.355196605495940232e-01 2.007214397577456562e+14
1.360617391917924301e-01 2.052651426153945000e+14
1.366059861485595939e-01 2.098766786379755000e+14
1.371524100931538481e-01 2.145560310566828125e+14
1.377010197335264696e-01 2.193034458229879375e+14
1.382518238124605670e-01 2.241187518694599375e+14
1.388048311077104136e-01 2.290011160830125312e+14
1.393600504321412248e-01 2.339509562961435000e+14
1.399174906338697677e-01 2.389685764156133125e+14
1.404771605964052761e-01 2.440464999576573750e+14
1.410390692387908651e-01 2.492031755382667188e+14
1.416032255157460562e-01 2.544251079506726250e+14
1.421696384178090522e-01 2.597135795459485625e+14
1.427383169714803168e-01 2.650629158826507500e+14
1.433092702393662099e-01 2.704809990863959375e+14
1.438825073203236771e-01 2.759770812466514375e+14
1.444580373496049674e-01 2.815287232183790000e+14
1.450358694990033503e-01 2.871538513487980625e+14
1.456160129769993872e-01 2.928405619615808125e+14
1.461984770289073976e-01 2.985922573567470625e+14
1.467832709370230082e-01 3.044102488738237500e+14
1.473704040207710897e-01 3.102924013809460000e+14
1.479598856368541382e-01 3.162390989025015000e+14
1.485517251794015725e-01 3.222499246595100625e+14
1.491459320801191979e-01 3.283241096700263750e+14
1.497425158084396690e-01 3.344613517830759375e+14
1.503414858716734248e-01 3.406611045219815625e+14
1.509428518151600951e-01 3.469228498418009375e+14
1.515466232224207677e-01 3.532458536891727500e+14
1.521528097153104220e-01 3.596288966871443125e+14
1.527614209541716672e-01 3.660739183681285000e+14
1.533724666379883694e-01 3.725779897668570000e+14
1.539859565045403056e-01 3.791403695732278750e+14
1.546019003305584838e-01 3.857594991287805625e+14
1.552203079318807133e-01 3.924161563410138750e+14
1.558411891636082569e-01 3.990385713533166250e+14
1.564645539202626778e-01 4.056569068218292500e+14
1.570904121359437411e-01 4.126982603854240625e+14
1.577187737844875093e-01 4.195784193233563125e+14
1.583496488796254653e-01 4.264546017400746875e+14
1.589830474751439959e-01 4.336381203565120625e+14
1.596189796650445414e-01 4.407235897716101250e+14
1.602574555837047166e-01 4.478238447539466250e+14
1.608984854060395708e-01 4.547046732566654375e+14
1.615420793476636807e-01 4.618578683635286250e+14
1.621882476650543525e-01 4.692625668885255000e+14
1.628370006557145755e-01 4.763879546103891250e+14
1.634883486583374457e-01 4.837342422413378125e+14
1.641423020529707844e-01 4.912750229411271875e+14
1.647988712611826723e-01 4.988498743282743750e+14
1.654580667462274002e-01 5.063088281770683750e+14
1.661198990132123077e-01 5.136749184266060000e+14
1.667843786092651215e-01 5.212921264980670000e+14
1.674515161237022098e-01 5.289529859709386875e+14
1.681213221881969755e-01 5.366520385364571250e+14
1.687938074769497754e-01 5.442377439428452500e+14
1.694689827068575905e-01 5.519788996733103750e+14
1.701468586376850278e-01 5.595381482141596250e+14
1.708274460722357391e-01 5.674304935021005000e+14
1.715107558565246715e-01 5.752021011275688750e+14
1.721967988799507909e-01 5.830820728484507500e+14
1.728855860754705820e-01 5.909675572625886250e+14
1.735771284197724640e-01 5.988798637717170000e+14
1.742714369334515678e-01 6.067839892254148750e+14
1.749685226811853456e-01 6.147094916249358750e+14
1.756683967719100681e-01 6.226593577103187500e+14
1.763710703589977391e-01 6.306262882210888750e+14
1.770765546404337309e-01 6.386160817622310000e+14
1.777848608589954471e-01 6.466225033214692500e+14
1.784960003024314568e-01 6.546419359793507500e+14
1.792099843036411844e-01 6.626800541786985000e+14
1.799268242408557650e-01 6.707295485507808750e+14
1.806465315378191772e-01 6.787897807108700000e+14
1.813691176639704306e-01 6.868602736202345000e+14
1.820945941346263086e-01 6.949361000283141250e+14
1.828229725111648329e-01 7.030218090339033750e+14
1.835542644012094771e-01 7.111016607374917500e+14
1.842884814588143239e-01 7.191914220860356250e+14
1.850256353846495561e-01 7.273010315749232500e+14
1.857657379261881403e-01 7.353909461425351250e+14
1.865088008778928996e-01 7.434912994290301250e+14
1.872548360814044743e-01 7.515823370650863750e+14
1.880038554257300876e-01 7.596651994814312500e+14
1.887558708474330049e-01 7.677474647999880000e+14
1.895108943308226879e-01 7.758179159665870000e+14
1.902689379081460019e-01 7.838755342997373750e+14
1.910300136597785636e-01 7.919241361709935000e+14
1.917941337144176972e-01 7.999675807906787500e+14
1.925613102492753359e-01 8.079897369708955000e+14
1.933315554902724498e-01 8.159934412522388750e+14
1.941048817122335568e-01 8.239834685193841250e+14
1.948813012390824828e-01 8.319511038250652500e+14
1.956608264440388156e-01 8.398972851290201250e+14
1.964434697498149418e-01 8.478202099457678750e+14
1.972292436288141937e-01 8.557182385850950000e+14
1.980181606033294406e-01 8.635900548730000000e+14
1.988102332457427346e-01 8.714335244091771250e+14
1.996054741787257336e-01 8.792470531746916250e+14
2.004038960754406518e-01 8.870268708510856250e+14
2.012055116597424309e-01 8.947746173394808750e+14
2.020103337063813842e-01 9.024899353442438750e+14
2.028183750412069219e-01 9.101702078449853750e+14
2.036296485413717494e-01 9.178089751712295000e+14
2.044441671355372303e-01 9.254086619080496250e+14
2.052619438040793887e-01 9.329671016386357500e+14
2.060829915792957157e-01 9.404836868927977500e+14
2.069073235456129201e-01 9.479558047415748750e+14
2.077349528397953449e-01 9.553808936171096250e+14
2.085658926511545219e-01 9.627593607876977500e+14
2.094001562217591150e-01 9.700877815054088750e+14
2.102377568466461677e-01 9.773663257139771250e+14
2.110787078740327671e-01 9.845914588539552500e+14
2.119230227055288740e-01 9.917638254686651250e+14
2.127707147963510126e-01 9.988804826041030000e+14
2.136217976555363773e-01 1.005936858832191625e+15
2.144762848461585492e-01 1.012939871019755750e+15
2.153341899855431840e-01 1.019883525801431625e+15
2.161955267454853669e-01 1.026763115769171875e+15
2.170603088524672986e-01 1.033583419160471500e+15
2.179285500878772042e-01 1.040337611973580625e+15
2.188002642882286852e-01 1.047027067835382625e+15
2.196754653453815986e-01 1.053649964046608375e+15
2.205541672067631020e-01 1.060204072611668000e+15
2.214363838755901703e-01 1.066689075204492875e+15
2.223221294110925284e-01 1.073103066306593500e+15
2.232114179287369160e-01 1.079445429069648375e+15
2.241042636004518529e-01 1.085711047916421000e+15
2.250006806548536520e-01 1.091753301579386750e+15
2.259006833774730438e-01 1.097959181260635125e+15
2.268042861109829667e-01 1.104014411159939125e+15
2.277115032554268836e-01 1.110003837936849125e+15
2.286223492684485714e-01 1.115920914563494250e+15
2.295368386655223802e-01 1.121725868102728000e+15
2.304549860201844658e-01 1.127449305817396750e+15
2.313768059642651864e-01 1.133090068770384500e+15
2.323023131881222503e-01 1.138461895261627250e+15
2.332315224408747223e-01 1.143369742849361500e+15
2.341644485306381973e-01 1.147859109732417750e+15
2.351011063247607502e-01 1.153753453576475500e+15
2.360415107500598020e-01 1.158595988621370750e+15
2.369856767930600405e-01 1.164584110850132000e+15
2.379336195002322851e-01 1.167235741096481500e+15
2.388853539782332114e-01 1.174345357065568000e+15
2.398408953941461863e-01 1.177586697972009750e+15
2.408002589757227141e-01 1.181743303616434250e+15
2.417634600116256582e-01 1.189072571090503500e+15
2.427305138516721306e-01 1.193979480202470250e+15
2.437014359070788505e-01 1.198462022130187500e+15
2.446762416507071713e-01 1.202837988995261750e+15
2.456549466173099938e-01 1.207139192921713250e+15
2.466375664037792625e-01 1.211331104418398250e+15
2.476241166693943785e-01 1.215424748300171000e+15
2.486146131360719436e-01 1.219419886761190250e+15
2.496090715886161993e-01 1.223321864003327500e+15
2.506075078749706586e-01 1.227130999010112000e+15
2.516099379064705155e-01 1.230832603294881250e+15
2.526163776580964138e-01 1.234430456341729000e+15
2.536268431687287994e-01 1.237936641189442000e+15
2.546413505414037437e-01 1.241344955821398500e+15
2.556599159435693491e-01 1.244651311819954000e+15
2.566825556073435988e-01 1.247654913743073500e+15
2.577092858297729827e-01 1.250935151263531250e+15
2.587401229730920682e-01 1.253144243789258250e+15
2.597750834649844576e-01 1.254193514724220750e+15
2.608141837988444123e-01 1.257548409460530250e+15
2.618574405340398092e-01 1.261105231674849750e+15
2.629048702961759298e-01 1.262774739882430750e+15
2.639564897773606367e-01 1.267392381074038250e+15
2.650123157364701054e-01 1.269771637870436000e+15
2.660723649994159445e-01 1.272047108606495250e+15
2.671366544594135917e-01 1.274219072691525250e+15
2.682052010772512096e-01 1.276287329336745250e+15
2.692780218815602478e-01 1.278250981290789500e+15
2.703551339690865030e-01 1.280112224094125000e+15
2.714365545049627904e-01 1.281835101135163750e+15
2.725223007229827243e-01 1.283488595643463750e+15
2.736123899258746106e-01 1.284893996879042750e+15
2.747068394855781692e-01 1.285867429128986750e+15
2.758056668435204806e-01 1.287639922100791750e+15
2.769088895108945403e-01 1.289094498059607750e+15
2.780165250689380918e-01 1.290231936237944250e+15
2.791285911692138466e-01 1.286871583436606500e+15
2.802451055338907038e-01 1.288016862218175000e+15
2.813660859560263017e-01 1.293020756961649750e+15
2.824915502998503469e-01 1.293745009813547750e+15
2.836215165010497197e-01 1.294366791684759250e+15
2.847560025670539119e-01 1.294886646578672750e+15
2.858950265773221866e-01 1.295306220985313000e+15
2.870386066836315142e-01 1.295623731811658250e+15
2.881867611103660631e-01 1.295838575112000250e+15
2.893395081548075787e-01 1.295957497054919750e+15
2.904968661874267610e-01 1.295974407392965000e+15
2.916588536521764197e-01 1.295891478372224500e+15
2.928254890667851273e-01 1.295704179301316000e+15
2.939967910230522619e-01 1.295427689630005000e+15
2.951727781871444911e-01 1.295042980111723500e+15
2.963534692998930908e-01 1.294573275710980750e+15
2.975388831770926501e-01 1.293998144544333750e+15
2.987290387098009981e-01 1.293325982246398750e+15
2.999239548646402409e-01 1.292565205227385000e+15
3.011236506840988536e-01 1.291705999389591750e+15
3.023281452868351593e-01 1.290750674092547250e+15
3.035374578679824742e-01 1.289701323738163000e+15
3.047516076994544187e-01 1.288558608691899750e+15
3.059706141302522830e-01 1.287322961845210500e+15
3.071944965867733357e-01 1.285986804652160250e+15
3.084232745731204095e-01 1.284564919267906250e+15
3.096569676714128194e-01 1.283067802702819000e+15
3.108955955420985018e-01 1.281468517894444750e+15
3.121391779242668751e-01 1.279780365620721000e+15
3.133877346359639215e-01 1.278003699727669250e+15
3.146412855745078230e-01 1.276138951905688000e+15
3.158998507168058190e-01 1.274184935695404750e+15
3.171634501196730627e-01 1.272151017555493250e+15
3.184321039201517545e-01 1.270028146526013500e+15
3.197058323358323295e-01 1.267821919084818750e+15
3.209846556651756444e-01 1.265533335098874000e+15
3.222685942878363852e-01 1.263157019001314750e+15
3.235576686649877520e-01 1.260682474221433750e+15
3.248518993396476984e-01 1.258169821731857000e+15
3.261513069370062801e-01 1.255559078183382750e+15
3.274559121647543369e-01 1.252865101702875250e+15
3.287657358134133401e-01 1.250093872129423000e+15
3.300807987566670154e-01 1.247244995978263750e+15
3.314011219516936890e-01 1.244319729899861000e+15
3.327267264395004642e-01 1.241315286694709250e+15
3.340576333452584534e-01 1.238241374677280750e+15
3.353938638786395088e-01 1.235088270095746000e+15
3.367354393341540630e-01 1.231857432116940250e+15
3.380823810914907468e-01 1.228580031626066750e+15
3.394347106158566718e-01 1.225219654017316250e+15
3.407924494583201014e-01 1.221790849755878750e+15
3.421556192561533982e-01 1.218290747886824750e+15
3.435242417331779707e-01 1.214723099340536000e+15
3.448983387001106626e-01 1.211088626399282000e+15
3.462779320549111417e-01 1.207389193630243250e+15
3.476630437831307319e-01 1.203625292651772750e+15
3.490536959582632992e-01 1.199798010404744250e+15
3.504499107420963600e-01 1.195908439059195500e+15
3.518517103850647421e-01 1.191957514001900500e+15
3.532591172266050239e-01 1.187946204476576750e+15
3.546721536955114717e-01 1.183875643238163000e+15
3.560908423102934761e-01 1.179746859585397750e+15
3.575152056795346533e-01 1.175560885848866250e+15
3.589452665022527800e-01 1.171318774140723750e+15
3.603810475682617254e-01 1.167021646374904000e+15
3.618225717585348278e-01 1.162670426144180750e+15
3.632698620455689364e-01 1.158266233172089000e+15
3.647229414937512293e-01 1.153810076194606000e+15
3.661818332597261971e-01 1.149303038200751500e+15
3.676465605927651259e-01 1.144746182570515750e+15
3.691171468351361895e-01 1.140139007779901750e+15
3.705936154224767076e-01 1.135486955943505000e+15
3.720759898841666247e-01 1.130786931760981750e+15
3.735642938437032656e-01 1.126040930288616000e+15
3.750585510190780902e-01 1.121250817575136625e+15
3.765587852231543908e-01 1.116413983051233875e+15
3.780650203640470441e-01 1.111540424582672750e+15
3.795772804455032068e-01 1.106622480292428000e+15
3.810955895672852312e-01 1.101664062004555000e+15
3.826199719255543585e-01 1.096666271028558750e+15
3.841504518132565771e-01 1.091630071161044875e+15
3.856870536205096456e-01 1.086556518194937125e+15
3.872298018349916715e-01 1.081446629228423250e+15
3.887787210423316320e-01 1.076301420181442750e+15
3.903338359265008939e-01 1.071121866565832625e+15
3.918951712702069545e-01 1.065909073902299125e+15
3.934627519552877928e-01 1.058962025655714000e+15
3.950366029631089404e-01 1.055387645308226375e+15
3.966167493749613859e-01 1.048938436889521125e+15
3.982032163724612550e-01 1.044745009513318875e+15
3.997960292379510450e-01 1.039380729437203000e+15
4.013952133549028578e-01 1.033989101853426000e+15
4.030007942083224659e-01 1.028571143885949375e+15
4.046127973851557647e-01 1.023127793645725375e+15
4.062312485746963908e-01 1.017660011188161125e+15
4.078561735689951728e-01 1.012168758222594250e+15
4.094875982632711353e-01 1.006654981416916625e+15
4.111255486563242245e-01 1.001119624189935250e+15
4.127700508509495880e-01 9.955636221189085000e+14
4.144211310543532978e-01 9.899879006140827500e+14
4.160788155785707931e-01 9.843933812366972500e+14
4.177431308408850463e-01 9.787809610900807500e+14
4.194141033642486138e-01 9.731516009307140000e+14
4.210917597777056320e-01 9.675061395717142500e+14
4.227761268168164221e-01 9.618454766713472500e+14
4.244672313240837602e-01 9.561705305285953750e+14
4.261651002493800910e-01 9.504821390946718750e+14
4.278697606503775730e-01 9.447811803784928750e+14
4.295812396929790666e-01 9.390684621067386250e+14
4.312995646517510107e-01 9.333449575562975000e+14
4.330247629103580187e-01 9.276114258967295000e+14
4.347568619619994745e-01 9.218686919735615000e+14
4.364958894098474596e-01 9.161175985076128750e+14
4.382418729674867897e-01 9.103589492310730000e+14
4.399948404593567730e-01 9.045935286020138750e+14
4.417548198211941890e-01 8.988222133078647500e+14
4.435218391004789873e-01 8.930456905739420000e+14
4.452959264568808750e-01 8.872648305422161250e+14
4.470771101627084021e-01 8.814803146315838750e+14
4.488654186033592119e-01 8.756929948520362500e+14
4.506608802777726241e-01 8.699035210811990000e+14
4.524635237988837710e-01 8.641127363919807500e+14
4.542733778940792333e-01 8.583212577330153750e+14
4.560904714056555065e-01 8.525299526877400000e+14
4.579148332912781894e-01 8.467394139754427500e+14
4.597464926244433370e-01 8.409503992500958750e+14
4.615854785949410899e-01 8.351635753886141250e+14
4.634318205093208576e-01 8.293796369052241250e+14
4.652855477913582227e-01 8.235992605498137500e+14
4.671466899825236219e-01 8.178231082932005000e+14
4.690152767424536906e-01 8.120518352256497500e+14
4.708913378494234969e-01 8.062860873203008750e+14
4.727749032008212171e-01 8.005264987992548750e+14
4.746660028136244769e-01 7.947736950206678750e+14
4.765646668248789131e-01 7.890282920320531250e+14
4.784709254921784560e-01 7.832908956162702500e+14
4.803848091941470555e-01 7.775621004019387500e+14
4.823063484309236815e-01 7.718424954132633750e+14
4.842355738246474361e-01 7.661326549924610000e+14
4.861725161199459966e-01 7.604331461701617500e+14
4.881172061844257226e-01 7.547445254984793750e+14
4.900696750091634302e-01 7.490673408813353750e+14
