# Wavelength (micrometer), Flux (W / m2 / m)
1.000553076518779783e-01 1.972904953692128906e+11
1.004555288824854897e-01 2.195134005462515234e+13
1.008573509980154326e-01 2.278257522047918750e+13
1.012607804020075053e-01 2.363990140665317578e+13
1.016658235236155422e-01 2.452394461141958984e+13
1.020724868177099870e-01 2.543529090222835547e+13
1.024807767649808382e-01 2.637118155489319531e+13
1.028906998720407612e-01 2.734255024017290234e+13
1.033022626715289355e-01 2.833967795142734375e+13
1.037154717222150413e-01 2.931134247653223828e+13
1.041303336091038839e-01 3.042384208456025391e+13
1.045468549435403099e-01 3.151209829818101953e+13
1.049650423633144702e-01 3.263236539881727734e+13
1.053849025327677214e-01 3.378451481839959766e+13
1.058064421428987906e-01 3.497073385650246094e+13
1.062296679114703990e-01 3.618477002519715625e+13
1.066545865831162732e-01 3.743955065382882031e+13
1.070812049294487533e-01 3.873226297139021875e+13
1.075095297491665408e-01 4.005276654284995312e+13
1.079395678681632220e-01 4.141959997126239062e+13
1.083713261396358624e-01 4.281580045640235156e+13
1.088048114441943909e-01 4.425199356029242188e+13
1.092400306899711654e-01 4.572812084761372656e+13
1.096769908127310511e-01 4.723202398036331250e+13
1.101156987759819850e-01 4.879414587307973438e+13
1.105561615710859147e-01 5.039167613360532031e+13
1.109983862173702651e-01 5.202683602063882812e+13
1.114423797622397516e-01 5.370538337005685156e+13
1.118881492812886930e-01 5.542631356361339062e+13
1.123357018784138517e-01 5.718306979586667188e+13
1.127850446859275102e-01 5.898756706333153906e+13
1.132361848646712132e-01 6.084647250746344531e+13
1.136891296041298988e-01 6.274814374332848438e+13
1.141438861225464035e-01 6.469076665786348438e+13
1.146004616670366072e-01 6.665652480278822656e+13
1.150588635137047705e-01 6.871213439321915625e+13
1.155190989677595953e-01 7.080773532939937500e+13
1.159811753636306314e-01 7.294811305470409375e+13
1.164451000650851553e-01 7.513369452248981250e+13
1.169108804653455069e-01 7.736802622279312500e+13
1.173785239872068981e-01 7.965591283093090625e+13
1.178480380831557206e-01 8.199439011370748438e+13
1.183194302354883543e-01 8.438444889265498438e+13
1.187927079564302935e-01 8.682802257601751562e+13
1.192678787882560099e-01 8.932486939963246875e+13
1.197449503034090645e-01 9.187578040500248438e+13
1.202239301046226783e-01 9.448144054342301562e+13
1.207048258250411760e-01 9.714239784656371875e+13
1.211876451283413342e-01 9.985899386853585938e+13
1.216723957088547137e-01 1.025957431337162969e+14
1.221590852916901310e-01 1.054634315915824844e+14
1.226477216328568792e-01 1.083516217538731875e+14
1.231383125193883099e-01 1.112983014540699844e+14
1.236308657694658586e-01 1.143036406611745156e+14
1.241253892325437369e-01 1.173682521065995000e+14
1.246218907894739159e-01 1.204931188357657031e+14
1.251203783526317892e-01 1.236781133549694219e+14
1.256208598660423226e-01 1.269240676844668125e+14
1.261233433055065078e-01 1.302267179063307812e+14
1.266278366787285392e-01 1.335938601674554062e+14
1.271343480254434610e-01 1.370275516251763750e+14
1.276428854175452321e-01 1.405224053239785312e+14
1.281534569592154005e-01 1.440839213016711875e+14
1.286660707870522780e-01 1.477049132287595000e+14
1.291807350702004475e-01 1.513900258714572812e+14
1.296974580104812425e-01 1.551393266845978438e+14
1.302162478425231973e-01 1.589527075372540000e+14
1.307371128338932764e-01 1.628322698100623125e+14
1.312600612852288795e-01 1.667776049628327188e+14
1.317851015303697915e-01 1.707879423820917812e+14
1.323122419364912705e-01 1.748642691939179062e+14
1.328414909042372472e-01 1.790068188471912500e+14
1.333728568678542170e-01 1.828828706413198438e+14
1.339063482953256612e-01 1.874919496892638750e+14
1.344419736885069383e-01 1.918340908216320625e+14
1.349797415832609815e-01 1.962439702012056875e+14
1.355196605495940232e-01 2.007209558620332500e+14
1.360617391917924301e-01 2.052652362349748125e+14
1.366059861485595939e-01 2.098769199537941562e+14
1.371524100931538481e-01 2.145563717463432500e+14
1.377010197335264696e-01 2.193034554466251562e+14
1.382518238124605670e-01 2.241182429190808438e+14
1.388048311077104136e-01 2.290005303991044688e+14
1.393600504321412248e-01 2.339505506508591250e+14
1.399174906338697677e-01 2.389682328101807812e+14
1.404771605964052761e-01 2.440522875579445000e+14
1.410390692387908651e-01 2.492056844698370000e+14
1.416032255157460562e-01 2.544263003433245000e+14
1.421696384178090522e-01 2.597138836781853125e+14
1.427383169714803168e-01 2.650674855925259688e+14
1.433092702393662099e-01 2.704883272770714688e+14
1.438825073203236771e-01 2.759777942930601875e+14
1.444580373496049674e-01 2.815319401860910000e+14
1.450358694990033503e-01 2.871533850691091875e+14
1.456160129769993872e-01 2.928400245989053750e+14
1.461984770289073976e-01 2.985922817453693125e+14
1.467832709370230082e-01 3.044097548923108750e+14
1.473704040207710897e-01 3.102918990699003125e+14
1.479598856368541382e-01 3.162385958275035625e+14
1.485517251794015725e-01 3.222492723123337500e+14
1.491459320801191979e-01 3.283234719961177500e+14
1.497425158084396690e-01 3.344607220776390000e+14
1.503414858716734248e-01 3.406604677429906875e+14
1.509428518151600951e-01 3.469222631142064375e+14
1.515466232224207677e-01 3.532454742454425000e+14
1.521528097153104220e-01 3.596297113391851875e+14
1.527614209541716672e-01 3.660738165327221250e+14
1.533724666379883694e-01 3.725775152379485000e+14
1.539859565045403056e-01 3.791398453744428125e+14
1.546019003305584838e-01 3.857603755915661875e+14
1.552203079318807133e-01 3.924346966108391250e+14
1.558411891636082569e-01 3.991526599869479375e+14
1.564645539202626778e-01 4.059137527746630000e+14
1.570904121359437411e-01 4.127907458847328750e+14
1.577187737844875093e-01 4.196870255319823125e+14
1.583496488796254653e-01 4.266275064314183125e+14
1.589830474751439959e-01 4.336621385509218125e+14
1.596189796650445414e-01 4.407235951324570625e+14
1.602574555837047166e-01 4.478295587781188750e+14
1.608984854060395708e-01 4.549412215424823125e+14
1.615420793476636807e-01 4.621383316645277500e+14
1.621882476650543525e-01 4.694148278677104375e+14
1.628370006557145755e-01 4.766855190913543125e+14
1.634883486583374457e-01 4.840300774092986875e+14
1.641423020529707844e-01 4.914435341597684375e+14
1.647988712611826723e-01 4.988985203089626875e+14
1.654580667462274002e-01 5.063752395360158750e+14
1.661198990132123077e-01 5.138601127915005000e+14
1.667843786092651215e-01 5.214237400846405625e+14
1.674515161237022098e-01 5.290270309792106250e+14
1.681213221881969755e-01 5.366677219665563125e+14
1.687938074769497754e-01 5.443195438893921250e+14
1.694689827068575905e-01 5.520259827835671875e+14
1.701468586376850278e-01 5.597306875546530625e+14
1.708274460722357391e-01 5.675155576393071250e+14
1.715107558565246715e-01 5.753068492027801250e+14
1.721967988799507909e-01 5.831400072127295000e+14
1.728855860754705820e-01 5.909973914461436250e+14
1.735771284197724640e-01 5.988810832211726250e+14
1.742714369334515678e-01 6.067843608208358750e+14
1.749685226811853456e-01 6.147107643042133750e+14
1.756683967719100681e-01 6.226595252978193750e+14
1.763710703589977391e-01 6.306284029092338750e+14
1.770765546404337309e-01 6.386167692283278750e+14
1.777848608589954471e-01 6.466225678701722500e+14
1.784960003024314568e-01 6.546440111442595000e+14
1.792099843036411844e-01 6.626803892189703750e+14
1.799268242408557650e-01 6.707295478664110000e+14
1.806465315378191772e-01 6.787899949090127500e+14
1.813691176639704306e-01 6.868602756141601250e+14
1.820945941346263086e-01 6.949383718787752500e+14
1.828229725111648329e-01 7.030235700798533750e+14
1.835542644012094771e-01 7.111120440329661250e+14
1.842884814588143239e-01 7.192049160322795000e+14
1.850256353846495561e-01 7.273024890052252500e+14
1.857657379261881403e-01 7.353969178781471250e+14
1.865088008778928996e-01 7.434918078790827500e+14
1.872548360814044743e-01 7.515825835278375000e+14
1.880038554257300876e-01 7.596680073897243750e+14
1.887558708474330049e-01 7.677478651853792500e+14
1.895108943308226879e-01 7.758190559367656250e+14
1.902689379081460019e-01 7.838801269339436250e+14
1.910300136597785636e-01 7.919299511744350000e+14
1.917941337144176972e-01 7.999677386579403750e+14
1.925613102492753359e-01 8.079901490891600000e+14
1.933315554902724498e-01 8.159957297809216250e+14
1.941048817122335568e-01 8.239833647465140000e+14
1.948813012390824828e-01 8.319510594668021250e+14
1.956608264440388156e-01 8.398972146723642500e+14
1.964434697498149418e-01 8.478202247883418750e+14
1.972292436288141937e-01 8.557183747523151250e+14
1.980181606033294406e-01 8.635900336053675000e+14
1.988102332457427346e-01 8.714335039744245000e+14
1.996054741787257336e-01 8.792471259302838750e+14
2.004038960754406518e-01 8.870289401698282500e+14
2.012055116597424309e-01 8.947777928523123750e+14
2.020103337063813842e-01 9.024921904820666250e+14
2.028183750412069219e-01 9.101703053017577500e+14
2.036296485413717494e-01 9.178099371042790000e+14
2.044441671355372303e-01 9.254099562068876250e+14
2.052619438040793887e-01 9.329687286947541250e+14
2.060829915792957157e-01 9.404847718725118750e+14
2.069073235456129201e-01 9.479563559110177500e+14
2.077349528397953449e-01 9.553817497403783750e+14
2.085658926511545219e-01 9.627596512681881250e+14
2.094001562217591150e-01 9.700882902782901250e+14
2.102377568466461677e-01 9.773663013342193750e+14
2.110787078740327671e-01 9.845919772348508750e+14
2.119230227055288740e-01 9.917639514149632500e+14
2.127707147963510126e-01 9.988806385083495000e+14
2.136217976555363773e-01 1.005940092168029125e+15
2.144762848461585492e-01 1.012942043993180375e+15
2.153341899855431840e-01 1.019884331727341125e+15
2.161955267454853669e-01 1.026765110976036875e+15
2.170603088524672986e-01 1.033583795727363375e+15
2.179285500878772042e-01 1.040338212633473125e+15
2.188002642882286852e-01 1.047027436126104500e+15
2.196754653453815986e-01 1.053649954980558000e+15
2.205541672067631020e-01 1.060204404597817875e+15
2.214363838755901703e-01 1.066689561823157750e+15
2.223221294110925284e-01 1.073103948780578250e+15
2.232114179287369160e-01 1.079446430342575125e+15
2.241042636004518529e-01 1.085715236017764250e+15
2.250006806548536520e-01 1.091887274582308125e+15
2.259006833774730438e-01 1.098019452748228375e+15
2.268042861109829667e-01 1.104063654225250625e+15
2.277115032554268836e-01 1.110031645162023250e+15
2.286223492684485714e-01 1.115921433182649750e+15
2.295368386655223802e-01 1.121726231070344750e+15
2.304549860201844658e-01 1.127449563185577250e+15
2.313768059642651864e-01 1.133090335536156000e+15
2.323023131881222503e-01 1.138620090434699000e+15
2.332315224408747223e-01 1.144014109992831250e+15
2.341644485306381973e-01 1.149282040541162250e+15
2.351011063247607502e-01 1.154661518852207750e+15
2.360415107500598020e-01 1.159820571908330250e+15
2.369856767930600405e-01 1.165063844741807500e+15
2.379336195002322851e-01 1.169804620340033750e+15
2.388853539782332114e-01 1.175014256771139250e+15
2.398408953941461863e-01 1.179676637642850500e+15
2.408002589757227141e-01 1.184341834848290500e+15
2.417634600116256582e-01 1.189359473954747750e+15
2.427305138516721306e-01 1.193982686673263500e+15
2.437014359070788505e-01 1.198463955503289000e+15
2.446762416507071713e-01 1.202848551247632250e+15
2.456549466173099938e-01 1.207140553442567000e+15
2.466375664037792625e-01 1.211334348892866250e+15
2.476241166693943785e-01 1.215430993589318000e+15
2.486146131360719436e-01 1.219429944801896250e+15
2.496090715886161993e-01 1.223331456762711250e+15
2.506075078749706586e-01 1.227135174943030500e+15
2.516099379064705155e-01 1.230838440473448750e+15
2.526163776580964138e-01 1.234441465075323250e+15
2.536268431687287994e-01 1.237945520699644250e+15
2.546413505414037437e-01 1.241349400740005000e+15
2.556599159435693491e-01 1.244652096344362750e+15
2.566825556073435988e-01 1.247824495602039750e+15
2.577092858297729827e-01 1.250949485856563750e+15
2.587401229730920682e-01 1.253838800213736750e+15
2.597750834649844576e-01 1.256528596123683000e+15
2.608141837988444123e-01 1.259376590498640500e+15
2.618574405340398092e-01 1.262161076199050750e+15
2.629048702961759298e-01 1.264631030476337000e+15
2.639564897773606367e-01 1.267392655737612000e+15
2.650123157364701054e-01 1.269771800710964000e+15
2.660723649994159445e-01 1.272047382929680500e+15
2.671366544594135917e-01 1.274219318083583250e+15
2.682052010772512096e-01 1.276287512832370250e+15
2.692780218815602478e-01 1.278251801564289750e+15
2.703551339690865030e-01 1.280112451970798500e+15
2.714365545049627904e-01 1.281864385444077250e+15
2.725223007229827243e-01 1.283517411695855000e+15
2.736123899258746106e-01 1.285046333106026500e+15
2.747068394855781692e-01 1.286426582962351250e+15
2.758056668435204806e-01 1.287828175166314500e+15
2.769088895108945403e-01 1.289097077698397750e+15
2.780165250689380918e-01 1.290232675509465500e+15
2.791285911692138466e-01 1.290836158267119500e+15
2.802451055338907038e-01 1.291781458471083500e+15
2.813660859560263017e-01 1.293020971325754250e+15
2.824915502998503469e-01 1.293745265761652250e+15
2.836215165010497197e-01 1.294367365951612000e+15
2.847560025670539119e-01 1.294887721433455250e+15
2.858950265773221866e-01 1.295306635038071000e+15
2.870386066836315142e-01 1.295624357320566750e+15
2.881867611103660631e-01 1.295841051030414000e+15
2.893395081548075787e-01 1.295957998748572500e+15
2.904968661874267610e-01 1.295974707070819250e+15
2.916588536521764197e-01 1.295891857308740750e+15
2.928254890667851273e-01 1.295709217033906500e+15
2.939967910230522619e-01 1.295429309434160750e+15
2.951727781871444911e-01 1.295049921859010750e+15
2.963534692998930908e-01 1.294574720428371500e+15
2.975388831770926501e-01 1.294001347748990250e+15
2.987290387098009981e-01 1.293331439561560500e+15
2.999239548646402409e-01 1.292566665138762250e+15
3.011236506840988536e-01 1.291706173086824500e+15
3.023281452868351593e-01 1.290750842324936500e+15
3.035374578679824742e-01 1.289701491073170750e+15
3.047516076994544187e-01 1.288558780386670500e+15
3.059706141302522830e-01 1.287323360503342250e+15
3.071944965867733357e-01 1.285994775657593250e+15
3.084232745731204095e-01 1.284575619244238250e+15
3.096569676714128194e-01 1.283067982991049250e+15
3.108955955420985018e-01 1.281468837605765000e+15
3.121391779242668751e-01 1.279780621221138500e+15
3.133877346359639215e-01 1.278004063482847750e+15
3.146412855745078230e-01 1.276139906448223000e+15
3.158998507168058190e-01 1.274188677417295500e+15
3.171634501196730627e-01 1.272152281174489250e+15
3.184321039201517545e-01 1.270030288399686500e+15
3.197058323358323295e-01 1.267824127969120500e+15
3.209846556651756444e-01 1.265534679009142250e+15
3.222685942878363852e-01 1.263161985638754500e+15
3.235576686649877520e-01 1.260705340648976750e+15
3.248518993396476984e-01 1.258173676917254750e+15
3.261513069370062801e-01 1.255559605754524000e+15
3.274559121647543369e-01 1.252865987692484250e+15
3.287657358134133401e-01 1.250094368271862500e+15
3.300807987566670154e-01 1.247245531426834500e+15
3.314011219516936890e-01 1.244320456442112250e+15
3.327267264395004642e-01 1.241319598116068500e+15
3.340576333452584534e-01 1.238245033229030500e+15
3.353938638786395088e-01 1.235096295409020000e+15
3.367354393341540630e-01 1.231874442649589500e+15
3.380823810914907468e-01 1.228584543984110500e+15
3.394347106158566718e-01 1.225222462568227500e+15
3.407924494583201014e-01 1.221791083400568750e+15
3.421556192561533982e-01 1.218290874671105500e+15
3.435242417331779707e-01 1.214723211716433750e+15
3.448983387001106626e-01 1.211089075755740250e+15
3.462779320549111417e-01 1.207389558648934750e+15
3.476630437831307319e-01 1.203625627687809500e+15
3.490536959582632992e-01 1.199798308816836250e+15
3.504499107420963600e-01 1.195908635084340750e+15
3.518517103850647421e-01 1.191957622956736500e+15
3.532591172266050239e-01 1.187946313768245750e+15
3.546721536955114717e-01 1.183875745614646500e+15
3.560908423102934761e-01 1.179746971744603500e+15
3.575152056795346533e-01 1.175561012334500750e+15
3.589452665022527800e-01 1.171318923624707500e+15
3.603810475682617254e-01 1.167021748798246500e+15
3.618225717585348278e-01 1.162670540188220250e+15
3.632698620455689364e-01 1.158266336975446500e+15
3.647229414937512293e-01 1.153810195898343250e+15
3.661818332597261971e-01 1.149303160054679000e+15
3.676465605927651259e-01 1.144746287987059000e+15
3.691171468351361895e-01 1.140140428102828750e+15
3.705936154224767076e-01 1.135487188687174750e+15
3.720759898841666247e-01 1.130787081569708500e+15
3.735642938437032656e-01 1.126041291471744000e+15
3.750585510190780902e-01 1.121250947427176625e+15
3.765587852231543908e-01 1.116416637045487750e+15
3.780650203640470441e-01 1.111540543464407500e+15
3.795772804455032068e-01 1.106622594819873750e+15
3.810955895672852312e-01 1.101664198611363875e+15
3.826199719255543585e-01 1.096666391060563750e+15
3.841504518132565771e-01 1.091630195043784500e+15
3.856870536205096456e-01 1.086556641870888625e+15
3.872298018349916715e-01 1.081446752928100000e+15
3.887787210423316320e-01 1.076301546461919125e+15
3.903338359265008939e-01 1.071122033380314000e+15
3.918951712702069545e-01 1.065909234720423375e+15
3.934627519552877928e-01 1.060484814147480500e+15
3.950366029631089404e-01 1.055387767268350375e+15
3.966167493749613859e-01 1.049952018013083250e+15
3.982032163724612550e-01 1.044745134262173875e+15
3.997960292379510450e-01 1.039380850461854875e+15
4.013952133549028578e-01 1.033989232698567500e+15
4.030007942083224659e-01 1.028571263406635375e+15
4.046127973851557647e-01 1.023127904723138500e+15
4.062312485746963908e-01 1.017660119238989375e+15
4.078561735689951728e-01 1.012168862325297500e+15
4.094875982632711353e-01 1.006655082318479000e+15
4.111255486563242245e-01 1.001119722116473375e+15
4.127700508509495880e-01 9.955637173386980000e+14
4.144211310543532978e-01 9.899879935803477500e+14
4.160788155785707931e-01 9.843934736639596250e+14
4.177431308408850463e-01 9.787810727288616250e+14
4.194141033642486138e-01 9.731516888170731250e+14
4.210917597777056320e-01 9.675062255281108750e+14
4.227761268168164221e-01 9.618455751239372500e+14
4.244672313240837602e-01 9.561706133875658750e+14
4.261651002493800910e-01 9.504822204203991250e+14
4.278697606503775730e-01 9.447812610909796250e+14
4.295812396929790666e-01 9.390685952267556250e+14
4.312995646517510107e-01 9.333450654836127500e+14
4.330247629103580187e-01 9.276115133887080000e+14
4.347568619619994745e-01 9.218687766445996250e+14
4.364958894098474596e-01 9.161176738349437500e+14
4.382418729674867897e-01 9.103590258517695000e+14
4.399948404593567730e-01 9.045936330946902500e+14
4.417548198211941890e-01 8.988222929038953750e+14
4.435218391004789873e-01 8.930457872631473750e+14
4.452959264568808750e-01 8.872649077286946250e+14
4.470771101627084021e-01 8.814804126729861250e+14
4.488654186033592119e-01 8.756930667634903750e+14
4.506608802777726241e-01 8.699036197886638750e+14
4.524635237988837710e-01 8.641128142849007500e+14
4.542733778940792333e-01 8.583213760524557500e+14
4.560904714056555065e-01 8.525300322138172500e+14
4.579148332912781894e-01 8.467394982087313750e+14
4.597464926244433370e-01 8.409504669277260000e+14
4.615854785949410899e-01 8.351636411569898750e+14
4.634318205093208576e-01 8.293797041735205000e+14
4.652855477913582227e-01 8.235993259089752500e+14
4.671466899825236219e-01 8.178231726218756250e+14
4.690152767424536906e-01 8.120518986508237500e+14
4.708913378494234969e-01 8.062861504134731250e+14
4.727749032008212171e-01 8.005265615060506250e+14
4.746660028136244769e-01 7.947737569913670000e+14
4.765646668248789131e-01 7.890283543302031250e+14
4.784709254921784560e-01 7.832909567549998750e+14
4.803848091941470555e-01 7.775621625036788750e+14
4.823063484309236815e-01 7.718425553919563750e+14
4.842355738246474361e-01 7.661327148485430000e+14
4.861725161199459966e-01 7.604332057544246250e+14
4.881172061844257226e-01 7.547445842273800000e+14
4.900696750091634302e-01 7.490673990998750000e+14
