# Temperature (K), Pressure (bars)
1.011888531823003404e+03 3.162277660168379394e-04
1.061933919313451725e+03 5.623413251903490971e-04
1.111979308182700379e+03 1.000000000000000021e-03
1.160995277340268785e+03 1.778279410038922752e-03
1.211602464366987761e+03 3.162277660168379394e-03
1.265012678862384746e+03 5.623413251903490971e-03
1.322850009284510179e+03 1.000000000000000021e-02
1.390796850192244392e+03 1.778279410038922925e-02
1.479520300339800315e+03 3.162277660168379134e-02
1.600866735453546880e+03 5.623413251903491145e-02
1.749977747200128306e+03 1.000000000000000056e-01
1.930032074730683462e+03 1.778279410038922925e-01
2.154141929782116677e+03 3.162277660168379412e-01
2.395845285567908377e+03 5.623413251903490728e-01
2.626962307696357129e+03 1.000000000000000000e+00
2.849163005940283711e+03 1.778279410038922759e+00
3.068779014987022947e+03 3.162277660168379523e+00
3.291532002231068418e+03 5.623413251903491172e+00
3.522929070817667707e+03 1.000000000000000000e+01
3.768754250746565049e+03 1.778279410038922848e+01
4.036886711860549440e+03 3.162277660168379256e+01
4.332444552828255837e+03 5.623413251903490817e+01
4.662554776117073743e+03 1.000000000000000000e+02
5.030781084147311958e+03 1.778279410038922776e+02
5.457904951190895190e+03 3.162277660168379612e+02
