# Temperature (K), Pressure (bars)
7.287611155027109362e+02 1.000000000000000048e-04
7.736942079490572723e+02 1.778279410038922698e-04
8.186273014190089725e+02 3.162277660168379394e-04
8.621504365969050241e+02 5.623413251903490971e-04
9.055268330780844508e+02 1.000000000000000021e-03
9.500754352305303883e+02 1.778279410038922752e-03
9.972415741836911138e+02 3.162277660168379394e-03
1.050084589627740570e+03 5.623413251903490971e-03
1.111458735683723717e+03 1.000000000000000021e-02
1.187148942681573317e+03 1.778279410038922925e-02
1.280950993494215709e+03 3.162277660168379134e-02
1.414983980152758249e+03 5.623413251903491145e-02
1.613959997939868799e+03 1.000000000000000056e-01
1.856679811608015825e+03 1.778279410038922925e-01
2.115145238751369561e+03 3.162277660168379412e-01
2.370425333875142314e+03 5.623413251903490728e-01
2.608839706388650029e+03 1.000000000000000000e+00
2.833706517360908947e+03 1.778279410038922759e+00
3.052661212413927842e+03 3.162277660168379523e+00
3.273513183150088935e+03 5.623413251903491172e+00
3.502964909434638230e+03 1.000000000000000000e+01
3.747018458187008946e+03 1.778279410038922848e+01
4.013983935152015874e+03 3.162277660168379256e+01
4.307935333641336911e+03 5.623413251903490817e+01
4.635740361955777189e+03 1.000000000000000000e+02
5.000920749372005048e+03 1.778279410038922776e+02
5.423920372426350696e+03 3.162277660168379612e+02
