# Temperature (K), Pressure (bars)
7.527130769858719077e+02 5.623413251903490971e-04
7.908520015455844714e+02 1.000000000000000021e-03
8.289909270709653129e+02 1.778279410038922752e-03
8.662632105456010549e+02 3.162277660168379394e-03
9.037135001788482214e+02 5.623413251903490971e-03
9.417418213147350343e+02 1.000000000000000021e-02
9.810759502020328000e+02 1.778279410038922925e-02
1.023889777105669168e+03 3.162277660168379134e-02
1.074107836503902035e+03 5.623413251903491145e-02
1.136566671323056426e+03 1.000000000000000056e-01
1.219258598584452784e+03 1.778279410038922925e-01
1.328413935966462532e+03 3.162277660168379412e-01
1.483303804356000683e+03 5.623413251903490728e-01
1.703170513825541320e+03 1.000000000000000000e+00
1.970112882920373295e+03 1.778279410038922759e+00
2.258199420042115889e+03 3.162277660168379523e+00
2.547499732450994088e+03 5.623413251903491172e+00
2.827858156880837214e+03 1.000000000000000000e+01
3.103732483774727370e+03 1.778279410038922848e+01
3.383313525873418712e+03 3.162277660168379256e+01
3.672730253457260460e+03 5.623413251903490817e+01
3.979720532689170341e+03 1.000000000000000000e+02
4.308804475438282680e+03 1.778279410038922776e+02
4.674860245544661666e+03 3.162277660168379612e+02
