# Temperature (K), Pressure (bars)
1.120701905555138183e+03 9.999999999999999547e-07
1.156288291586648484e+03 1.778279410038922901e-06
1.191874677621000046e+03 3.162277660168379191e-06
1.231474177731863847e+03 5.623413251903491208e-06
1.275100487710380776e+03 1.000000000000000082e-05
1.322754339968638533e+03 1.778279410038922901e-05
1.376641508345678858e+03 3.162277660168379530e-05
1.438092648158147085e+03 5.623413251903490700e-05
1.506828575224359611e+03 1.000000000000000048e-04
1.586768432075330111e+03 1.778279410038922698e-04
1.673954036852778700e+03 3.162277660168379394e-04
1.760403690136881323e+03 5.623413251903490971e-04
1.848113703762676550e+03 1.000000000000000021e-03
1.946553749631003939e+03 1.778279410038922752e-03
2.069964498301848835e+03 3.162277660168379394e-03
2.216944188039114124e+03 5.623413251903490971e-03
2.370875953042836954e+03 1.000000000000000021e-02
2.525125865400901603e+03 1.778279410038922925e-02
2.681941168839251077e+03 3.162277660168379134e-02
2.843616752529331279e+03 5.623413251903491145e-02
3.012338731631221890e+03 1.000000000000000056e-01
3.189718908917154295e+03 1.778279410038922925e-01
3.376803289420291094e+03 3.162277660168379412e-01
3.575657826506751917e+03 5.623413251903490728e-01
3.790747185355130568e+03 1.000000000000000000e+00
4.028639381644591595e+03 1.778279410038922759e+00
4.297940103426025416e+03 3.162277660168379523e+00
4.610596878579386612e+03 5.623413251903491172e+00
4.982233336793507988e+03 1.000000000000000000e+01
5.444640073831819791e+03 1.778279410038922848e+01
6.047962733702685000e+03 3.162277660168379256e+01
6.884683941598673300e+03 5.623413251903490817e+01
8.106572635068358977e+03 1.000000000000000000e+02
9.808578638278058861e+03 1.778279410038922776e+02
1.189348175622535564e+04 3.162277660168379612e+02
