# Temperature (K), Pressure (bars)
8.754057517654197227e+02 5.623413251903490971e-04
9.122788608122893947e+02 1.000000000000000021e-03
9.491519700496402265e+02 1.778279410038922752e-03
9.862526712254045833e+02 3.162277660168379394e-03
1.025537319957815043e+03 5.623413251903490971e-03
1.066666836714397277e+03 1.000000000000000021e-02
1.108777953322364510e+03 1.778279410038922925e-02
1.153262398079818240e+03 3.162277660168379134e-02
1.201498132816969701e+03 5.623413251903491145e-02
1.258693761993920134e+03 1.000000000000000056e-01
1.324812431040536694e+03 1.778279410038922925e-01
1.422776625656515307e+03 3.162277660168379412e-01
1.603963958259730134e+03 5.623413251903490728e-01
1.858356886691588215e+03 1.000000000000000000e+00
2.135615796647393836e+03 1.778279410038922759e+00
2.415811040802819662e+03 3.162277660168379523e+00
2.691900005705248532e+03 5.623413251903491172e+00
2.960876661034108110e+03 1.000000000000000000e+01
3.227333308284267332e+03 1.778279410038922848e+01
3.500492290616546143e+03 3.162277660168379256e+01
3.787059225805376627e+03 5.623413251903490817e+01
4.094446955798205636e+03 1.000000000000000000e+02
4.426639781384159505e+03 1.778279410038922776e+02
4.799150439629367611e+03 3.162277660168379612e+02
