# Temperature (K), Pressure (bars)
9.601089137877362418e+02 3.162277660168379394e-04
1.011921362621225398e+03 5.623413251903490971e-04
1.063733812946100898e+03 1.000000000000000021e-03
1.115242304887463661e+03 1.778279410038922752e-03
1.166909124152072991e+03 3.162277660168379394e-03
1.220255686685530236e+03 5.623413251903490971e-03
1.275770349096166910e+03 1.000000000000000021e-02
1.335870014400993568e+03 1.778279410038922925e-02
1.409264824978563638e+03 3.162277660168379134e-02
1.504825578417486440e+03 5.623413251903491145e-02
1.629220247172608879e+03 1.000000000000000056e-01
1.778641825319343980e+03 1.778279410038922925e-01
1.963917568631418135e+03 3.162277660168379412e-01
2.201434966800252369e+03 5.623413251903490728e-01
2.455866126396727395e+03 1.000000000000000000e+00
2.696699688109661111e+03 1.778279410038922759e+00
2.929511363416195309e+03 3.162277660168379523e+00
3.160455090281058801e+03 5.623413251903491172e+00
3.395905026088708382e+03 1.000000000000000000e+01
3.642321634735073530e+03 1.778279410038922848e+01
3.907948957859861366e+03 3.162277660168379256e+01
4.197942196697774307e+03 5.623413251903490817e+01
4.519127324985632185e+03 1.000000000000000000e+02
4.874734636491951278e+03 1.778279410038922776e+02
5.284201916341728065e+03 3.162277660168379612e+02
