# Temperature (K), Pressure (bars)
1.450936356095423207e+03 9.999999999999999547e-07
1.528462066851900317e+03 1.778279410038922901e-06
1.605987777608377201e+03 3.162277660168379191e-06
1.670370116258865664e+03 5.623413251903491208e-06
1.728433398154634688e+03 1.000000000000000082e-05
1.782764313505921791e+03 1.778279410038922901e-05
1.837021002402460226e+03 3.162277660168379530e-05
1.893887713798651475e+03 5.623413251903490700e-05
1.951757708566356087e+03 1.000000000000000048e-04
2.012113921671439812e+03 1.778279410038922698e-04
2.076936394466480579e+03 3.162277660168379394e-04
2.148409468081645173e+03 5.623413251903490971e-04
2.232430488285733645e+03 1.000000000000000021e-03
2.334124186343603014e+03 1.778279410038922752e-03
2.449412818681003955e+03 3.162277660168379394e-03
2.573255330451014743e+03 5.623413251903490971e-03
2.705509526757035474e+03 1.000000000000000021e-02
2.847713873292735116e+03 1.778279410038922925e-02
3.003057557998345146e+03 3.162277660168379134e-02
3.176399920806554746e+03 5.623413251903491145e-02
3.376742305770701932e+03 1.000000000000000056e-01
3.579999293926494374e+03 1.778279410038922925e-01
3.814191972274520140e+03 3.162277660168379412e-01
4.085953025182019701e+03 5.623413251903490728e-01
4.414538686119999511e+03 1.000000000000000000e+00
4.860916536362055012e+03 1.778279410038922759e+00
5.525974773860851201e+03 3.162277660168379523e+00
6.527758094384059405e+03 5.623413251903491172e+00
7.999310592100037866e+03 1.000000000000000000e+01
9.760735985142626305e+03 1.778279410038922848e+01
1.000000000000000000e+04 3.162277660168379256e+01
1.000000000000000000e+04 5.623413251903490817e+01
1.000000000000000000e+04 1.000000000000000000e+02
1.000000000000000000e+04 1.778279410038922776e+02
1.000000000000000000e+04 3.162277660168379612e+02
