# Temperature (K), Pressure (bars)
1.110087777527565549e+03 5.623413251903490971e-04
1.152319299221593838e+03 1.000000000000000021e-03
1.194550823788138132e+03 1.778279410038922752e-03
1.239863561209763930e+03 3.162277660168379394e-03
1.288638873725267786e+03 5.623413251903490971e-03
1.340558828361601400e+03 1.000000000000000021e-02
1.396492487703582810e+03 1.778279410038922925e-02
1.459428343435669376e+03 3.162277660168379134e-02
1.528378698174958799e+03 5.623413251903491145e-02
1.608259776460324019e+03 1.000000000000000056e-01
1.711520695394195400e+03 1.778279410038922925e-01
1.832526158958534552e+03 3.162277660168379412e-01
1.966460853763528803e+03 5.623413251903490728e-01
2.128483201036423452e+03 1.000000000000000000e+00
2.345641083335833173e+03 1.778279410038922759e+00
2.611776479517933240e+03 3.162277660168379523e+00
2.878782899992654620e+03 5.623413251903491172e+00
3.132843383167244156e+03 1.000000000000000000e+01
3.389352798053789229e+03 1.778279410038922848e+01
3.657187786359925667e+03 3.162277660168379256e+01
3.942766545783074889e+03 5.623413251903490817e+01
4.253082126505283668e+03 1.000000000000000000e+02
4.591406572737806528e+03 1.778279410038922776e+02
4.975129359999098597e+03 3.162277660168379612e+02
