# Temperature (K), Pressure (bars)
1.992558828095033277e+03 9.999999999999999547e-07
2.035858397989130481e+03 1.778279410038922901e-06
2.079157967883227684e+03 3.162277660168379191e-06
2.124122391876760958e+03 5.623413251903491208e-06
2.170296595618104220e+03 1.000000000000000082e-05
2.214044571294278740e+03 1.778279410038922901e-05
2.253066019819601479e+03 3.162277660168379530e-05
2.287576947590649979e+03 5.623413251903490700e-05
2.318695745241667282e+03 1.000000000000000048e-04
2.348203892295948208e+03 1.778279410038922698e-04
2.378310031961947516e+03 3.162277660168379394e-04
2.411275335178304886e+03 5.623413251903490971e-04
2.448901378741825283e+03 1.000000000000000021e-03
2.492945564332068898e+03 1.778279410038922752e-03
2.545520221468761520e+03 3.162277660168379394e-03
2.609339224282973191e+03 5.623413251903490971e-03
2.686022457006835339e+03 1.000000000000000021e-02
2.780400376340833645e+03 1.778279410038922925e-02
2.897655628252826318e+03 3.162277660168379134e-02
3.034272907074522209e+03 5.623413251903491145e-02
3.189323406907672506e+03 1.000000000000000056e-01
3.367698828228232742e+03 1.778279410038922925e-01
3.572498462154984736e+03 3.162277660168379412e-01
3.806207775804423363e+03 5.623413251903490728e-01
4.075046316325482167e+03 1.000000000000000000e+00
4.389773234987354044e+03 1.778279410038922759e+00
4.755438065624847695e+03 3.162277660168379523e+00
5.235075235788241116e+03 5.623413251903491172e+00
5.907130549727346988e+03 1.000000000000000000e+01
6.895868416822067957e+03 1.778279410038922848e+01
8.365634548022502713e+03 3.162277660168379256e+01
1.022485898870882374e+04 5.623413251903490817e+01
1.243660696732137512e+04 1.000000000000000000e+02
1.513586803688632426e+04 1.778279410038922776e+02
1.835272617955641908e+04 3.162277660168379612e+02
