# Temperature (K), Pressure (bars)
8.583606622011180889e+02 1.000000000000000082e-05
9.119303311592724413e+02 1.778279410038922901e-05
9.655000080792028712e+02 3.162277660168379530e-05
1.024870139215905965e+03 5.623413251903490700e-05
1.085354313363716983e+03 1.000000000000000048e-04
1.164638895214559852e+03 1.778279410038922698e-04
1.276808498742296479e+03 3.162277660168379394e-04
1.412930041058312099e+03 5.623413251903490971e-04
1.569621220549991449e+03 1.000000000000000021e-03
1.694504702928509460e+03 1.778279410038922752e-03
1.762060257008354483e+03 3.162277660168379394e-03
1.816317721474636073e+03 5.623413251903490971e-03
1.872081593517723149e+03 1.000000000000000021e-02
1.928107238981169303e+03 1.778279410038922925e-02
1.989859181413394708e+03 3.162277660168379134e-02
2.064469846859136851e+03 5.623413251903491145e-02
2.152527541081679374e+03 1.000000000000000056e-01
2.272223410027261707e+03 1.778279410038922925e-01
2.450205670786031533e+03 3.162277660168379412e-01
2.654483751368120011e+03 5.623413251903490728e-01
2.854818292332985493e+03 1.000000000000000000e+00
3.057510636490331763e+03 1.778279410038922759e+00
3.266114866067308412e+03 3.162277660168379523e+00
3.483857402433624884e+03 5.623413251903491172e+00
3.715059234311872387e+03 1.000000000000000000e+01
3.965046555007269035e+03 1.778279410038922848e+01
4.241546513756527929e+03 3.162277660168379256e+01
4.550374410989548778e+03 5.623413251903490817e+01
4.899584732104069190e+03 1.000000000000000000e+02
5.292957447967522057e+03 1.778279410038922776e+02
5.755877482775578756e+03 3.162277660168379612e+02
