# Temperature (K), Pressure (bars)
2.333607648948661335e+03 9.999999999999999547e-07
2.360673883329628097e+03 1.778279410038922901e-06
2.387740117715471570e+03 3.162277660168379191e-06
2.416965207059112799e+03 5.623413251903491208e-06
2.446782716789173264e+03 1.000000000000000082e-05
2.476463816965430851e+03 1.778279410038922901e-05
2.504739062555368037e+03 3.162277660168379530e-05
2.529245972463982980e+03 5.623413251903490700e-05
2.547503643080509391e+03 1.000000000000000048e-04
2.559459804070548671e+03 1.778279410038922698e-04
2.572855067739766127e+03 3.162277660168379394e-04
2.599782853129051091e+03 5.623413251903490971e-04
2.646236185984276744e+03 1.000000000000000021e-03
2.710357867386497674e+03 1.778279410038922752e-03
2.789362980551952205e+03 3.162277660168379394e-03
2.881739479282252432e+03 5.623413251903490971e-03
2.987200654467883396e+03 1.000000000000000021e-02
3.103807051891909850e+03 1.778279410038922925e-02
3.236006102782297148e+03 3.162277660168379134e-02
3.402310846552497424e+03 5.623413251903491145e-02
3.628154279311186656e+03 1.000000000000000056e-01
3.879446711119809606e+03 1.778279410038922925e-01
4.213333162091180384e+03 3.162277660168379412e-01
4.723350815768027132e+03 5.623413251903490728e-01
5.599485490610024499e+03 1.000000000000000000e+00
6.924873444476280383e+03 1.778279410038922759e+00
8.519357422473938641e+03 3.162277660168379523e+00
1.014610930099477082e+04 5.623413251903491172e+00
1.195653924682655634e+04 1.000000000000000000e+01
1.425109457702768486e+04 1.778279410038922848e+01
1.714837947384355357e+04 3.162277660168379256e+01
2.078183809605293936e+04 5.623413251903490817e+01
2.528851166927216400e+04 1.000000000000000000e+02
3.078884849451664923e+04 1.778279410038922776e+02
3.735229441843736276e+04 3.162277660168379612e+02
