# Temperature (K), Pressure (bars)
1.100017808874192497e+03 5.623413251903491208e-06
1.166590485862262312e+03 1.000000000000000082e-05
1.233163168252985997e+03 1.778279410038922901e-05
1.304574727094297486e+03 3.162277660168379530e-05
1.374575096380273862e+03 5.623413251903490700e-05
1.441583232192042260e+03 1.000000000000000048e-04
1.504385972136981081e+03 1.778279410038922698e-04
1.573998102704613075e+03 3.162277660168379394e-04
1.667350530158627180e+03 5.623413251903490971e-04
1.760763241950409110e+03 1.000000000000000021e-03
1.836520039970690277e+03 1.778279410038922752e-03
1.906447519790006254e+03 3.162277660168379394e-03
1.980243309885635426e+03 5.623413251903490971e-03
2.060322339945665590e+03 1.000000000000000021e-02
2.159789836204866788e+03 1.778279410038922925e-02
2.297607071799173355e+03 3.162277660168379134e-02
2.456313798654055972e+03 5.623413251903491145e-02
2.615727276003378392e+03 1.000000000000000056e-01
2.778154815275096553e+03 1.778279410038922925e-01
2.946508828846235247e+03 3.162277660168379412e-01
3.123132093270935457e+03 5.623413251903490728e-01
3.309634509971291209e+03 1.000000000000000000e+00
3.507558837305087309e+03 1.778279410038922759e+00
3.719671318319338752e+03 3.162277660168379523e+00
3.950313831174290499e+03 5.623413251903491172e+00
4.204996098460685062e+03 1.000000000000000000e+01
4.490458188006808086e+03 1.778279410038922848e+01
4.815609172358657815e+03 3.162277660168379256e+01
5.195789685056566668e+03 5.623413251903490817e+01
5.643947718095827440e+03 1.000000000000000000e+02
6.182450630918462593e+03 1.778279410038922776e+02
6.844798516497935452e+03 3.162277660168379612e+02
