# Temperature (K), Pressure (bars)
9.944984412558452505e+02 5.623413251903490700e-05
1.045775089252818361e+03 1.000000000000000048e-04
1.097051737036800205e+03 1.778279410038922698e-04
1.134706247098308722e+03 3.162277660168379394e-04
1.163744318285162535e+03 5.623413251903490971e-04
1.192244546381485634e+03 1.000000000000000021e-03
1.220680996985465299e+03 1.778279410038922752e-03
1.265242307069331218e+03 3.162277660168379394e-03
1.343333812245528861e+03 5.623413251903490971e-03
1.453723461555885933e+03 1.000000000000000021e-02
1.582667916297559941e+03 1.778279410038922925e-02
1.695215909208140829e+03 3.162277660168379134e-02
1.782923785634930027e+03 5.623413251903491145e-02
1.880807884190883669e+03 1.000000000000000056e-01
1.993538090420663366e+03 1.778279410038922925e-01
2.141826999007073937e+03 3.162277660168379412e-01
2.363002853159370716e+03 5.623413251903490728e-01
2.606571483180043742e+03 1.000000000000000000e+00
2.832127885744183459e+03 1.778279410038922759e+00
3.053877098081013628e+03 3.162277660168379523e+00
3.277845608392744452e+03 5.623413251903491172e+00
3.509737743814153418e+03 1.000000000000000000e+01
3.755606997051141661e+03 1.778279410038922848e+01
4.023427991833701981e+03 3.162277660168379256e+01
4.318404138530869204e+03 5.623413251903490817e+01
4.647555111708027653e+03 1.000000000000000000e+02
5.014484359582233992e+03 1.778279410038922776e+02
5.439835194094051985e+03 3.162277660168379612e+02
