# Temperature (K), Pressure (bars)
1.724974046649122329e+03 9.999999999999999547e-07
1.738412580368368708e+03 1.778279410038922901e-06
1.751851114087706719e+03 3.162277660168379191e-06
1.768714560931689675e+03 5.623413251903491208e-06
1.792370085554744037e+03 1.000000000000000082e-05
1.823726500025493351e+03 1.778279410038922901e-05
1.861760445759724007e+03 3.162277660168379530e-05
1.906585979684516133e+03 5.623413251903490700e-05
1.957774835364629553e+03 1.000000000000000048e-04
2.014382582484241539e+03 1.778279410038922698e-04
2.075813753121061382e+03 3.162277660168379394e-04
2.141247091917247417e+03 5.623413251903490971e-04
2.212800860253931660e+03 1.000000000000000021e-03
2.297661411098414646e+03 1.778279410038922752e-03
2.398259463868667808e+03 3.162277660168379394e-03
2.509325246412624438e+03 5.623413251903490971e-03
2.628198743183716942e+03 1.000000000000000021e-02
2.755862296131469520e+03 1.778279410038922925e-02
2.893617817800675766e+03 3.162277660168379134e-02
3.043277496869331117e+03 5.623413251903491145e-02
3.207537869621931804e+03 1.000000000000000056e-01
3.390241952084887089e+03 1.778279410038922925e-01
3.596120192795592629e+03 3.162277660168379412e-01
3.830548872402151574e+03 5.623413251903490728e-01
4.103194907166719531e+03 1.000000000000000000e+00
4.399898986620491087e+03 1.778279410038922759e+00
4.769739244407160186e+03 3.162277660168379523e+00
5.261802530020404447e+03 5.623413251903491172e+00
5.975436448638711227e+03 1.000000000000000000e+01
7.066957759437114873e+03 1.778279410038922848e+01
8.639145293209890951e+03 3.162277660168379256e+01
1.055398079226515802e+04 5.623413251903490817e+01
1.284067757818256723e+04 1.000000000000000000e+02
1.563187723342357822e+04 1.778279410038922776e+02
1.896158339398278622e+04 3.162277660168379612e+02
