# Temperature (K), Pressure (bars)
2.389624225524875783e+03 9.999999999999999547e-07
2.396487740691557974e+03 1.778279410038922901e-06
2.403351255858240620e+03 3.162277660168379191e-06
2.421446051879471725e+03 5.623413251903491208e-06
2.447837767230828376e+03 1.000000000000000082e-05
2.480322486692216444e+03 1.778279410038922901e-05
2.515036741181474554e+03 3.162277660168379530e-05
2.549897421360572480e+03 5.623413251903490700e-05
2.586200936019351957e+03 1.000000000000000048e-04
2.623194348959457784e+03 1.778279410038922698e-04
2.659705116478449781e+03 3.162277660168379394e-04
2.692837140631620969e+03 5.623413251903490971e-04
2.718442838795487660e+03 1.000000000000000021e-03
2.737740345957663521e+03 1.778279410038922752e-03
2.760828849693358734e+03 3.162277660168379394e-03
2.800257306918108497e+03 5.623413251903490971e-03
2.856739087481500974e+03 1.000000000000000021e-02
2.924591900846563021e+03 1.778279410038922925e-02
2.985431103656128926e+03 3.162277660168379134e-02
3.057092422450300546e+03 5.623413251903491145e-02
3.189287480854495243e+03 1.000000000000000056e-01
3.360321127950018308e+03 1.778279410038922925e-01
3.546178990645647900e+03 3.162277660168379412e-01
3.762906898912759516e+03 5.623413251903490728e-01
4.018319435562324998e+03 1.000000000000000000e+00
4.323691713630520098e+03 1.778279410038922759e+00
4.664569531080577690e+03 3.162277660168379523e+00
5.101358042329793534e+03 5.623413251903491172e+00
5.706145401197657520e+03 1.000000000000000000e+01
6.621808677613956206e+03 1.778279410038922848e+01
8.000904500229705263e+03 3.162277660168379256e+01
9.793514036296981430e+03 5.623413251903490817e+01
1.000000000000000000e+04 1.000000000000000000e+02
1.000000000000000000e+04 1.778279410038922776e+02
1.000000000000000000e+04 3.162277660168379612e+02
