# Temperature (K), Pressure (bars)
9.569421583690300395e+02 1.778279410038922901e-05
9.868197021800045832e+02 3.162277660168379530e-05
1.016697248073456990e+03 5.623413251903490700e-05
1.054542673693920733e+03 1.000000000000000048e-04
1.119101213495012871e+03 1.778279410038922698e-04
1.211338461302679434e+03 3.162277660168379394e-04
1.323603597560587787e+03 5.623413251903490971e-04
1.465930367562497167e+03 1.000000000000000021e-03
1.589128191928110709e+03 1.778279410038922752e-03
1.656402263410028581e+03 3.162277660168379394e-03
1.700155556716854107e+03 5.623413251903490971e-03
1.738018769136607943e+03 1.000000000000000021e-02
1.776071670846301231e+03 1.778279410038922925e-02
1.821775364179879944e+03 3.162277660168379134e-02
1.873645302573844901e+03 5.623413251903491145e-02
1.930877573614886842e+03 1.000000000000000056e-01
2.004738810887118689e+03 1.778279410038922925e-01
2.097101189641888595e+03 3.162277660168379412e-01
2.245712079223686487e+03 5.623413251903490728e-01
2.486404708085190123e+03 1.000000000000000000e+00
2.744039187267398120e+03 1.778279410038922759e+00
2.974773036234386382e+03 3.162277660168379523e+00
3.203821312720567676e+03 5.623413251903491172e+00
3.438620038013605154e+03 1.000000000000000000e+01
3.685266680793396517e+03 1.778279410038922848e+01
3.951686597001442351e+03 3.162277660168379256e+01
4.243506596439998248e+03 5.623413251903490817e+01
4.567645883071129902e+03 1.000000000000000000e+02
4.927595412022480559e+03 1.778279410038922776e+02
5.343018537861171353e+03 3.162277660168379612e+02
