# Temperature (K), Pressure (bars)
9.514319141131494462e+02 5.623413251903490971e-04
1.000718736112132774e+03 1.000000000000000021e-03
1.050005558811100400e+03 1.778279410038922752e-03
1.095731621172122004e+03 3.162277660168379394e-03
1.138908932938920088e+03 5.623413251903490971e-03
1.182066300913157647e+03 1.000000000000000021e-02
1.227971836324908736e+03 1.778279410038922925e-02
1.279084761372453613e+03 3.162277660168379134e-02
1.340984398864371769e+03 5.623413251903491145e-02
1.420558710011001722e+03 1.000000000000000056e-01
1.519886311475282810e+03 1.778279410038922925e-01
1.635845348235621714e+03 3.162277660168379412e-01
1.770981691284422368e+03 5.623413251903490728e-01
1.918938583917066353e+03 1.000000000000000000e+00
2.107132586653473027e+03 1.778279410038922759e+00
2.373635762824935682e+03 3.162277660168379523e+00
2.664144567350952457e+03 5.623413251903491172e+00
2.936470591049017912e+03 1.000000000000000000e+01
3.205374884255238157e+03 1.778279410038922848e+01
3.479769192059619854e+03 3.162277660168379256e+01
3.766783986142649610e+03 5.623413251903490817e+01
4.073951363304793631e+03 1.000000000000000000e+02
4.405142963737675927e+03 1.778279410038922776e+02
4.776255655593745360e+03 3.162277660168379612e+02
