# Temperature (K), Pressure (bars)
7.975520275843520039e+02 1.778279410038922901e-05
8.576950666477899858e+02 3.162277660168379530e-05
9.178381076617962435e+02 5.623413251903490700e-05
9.739858993677338503e+02 1.000000000000000048e-04
1.026604649118714633e+03 1.778279410038922698e-04
1.078105440625673282e+03 3.162277660168379394e-04
1.126709369820646543e+03 5.623413251903490971e-04
1.170727400951484242e+03 1.000000000000000021e-03
1.212895232332619571e+03 1.778279410038922752e-03
1.253826188182972828e+03 3.162277660168379394e-03
1.290469017748259603e+03 5.623413251903490971e-03
1.324656616468275843e+03 1.000000000000000021e-02
1.362844529852142841e+03 1.778279410038922925e-02
1.404397454483739011e+03 3.162277660168379134e-02
1.449427853706439237e+03 5.623413251903491145e-02
1.536582296501529299e+03 1.000000000000000056e-01
1.694278238112279723e+03 1.778279410038922925e-01
1.909387470189986061e+03 3.162277660168379412e-01
2.167123563876946264e+03 5.623413251903490728e-01
2.430441132574203493e+03 1.000000000000000000e+00
2.675864801317408364e+03 1.778279410038922759e+00
2.911707642549121374e+03 3.162277660168379523e+00
3.144115494315823526e+03 5.623413251903491172e+00
3.380087583733367865e+03 1.000000000000000000e+01
3.626575134556741887e+03 1.778279410038922848e+01
3.892025244129212751e+03 3.162277660168379256e+01
4.181484300726147012e+03 5.623413251903490817e+01
4.501720604607637142e+03 1.000000000000000000e+02
4.855851168809262163e+03 1.778279410038922776e+02
5.262994661855715094e+03 3.162277660168379612e+02
