# Temperature (K), Pressure (bars)
7.794820975192823198e+02 9.999999999999999547e-07
7.983313157607778976e+02 1.778279410038922901e-06
8.171805340145181162e+02 3.162277660168379191e-06
8.393886899470022627e+02 5.623413251903491208e-06
8.662684857072774776e+02 1.000000000000000082e-05
8.981384989975904318e+02 1.778279410038922901e-05
9.338763264145118228e+02 3.162277660168379530e-05
9.729455598811327945e+02 5.623413251903490700e-05
1.015586099697635973e+03 1.000000000000000048e-04
1.061192136386196125e+03 1.778279410038922698e-04
1.109630811159936002e+03 3.162277660168379394e-04
1.161474824755560348e+03 5.623413251903490971e-04
1.217584968235429415e+03 1.000000000000000021e-03
1.279955877912630967e+03 1.778279410038922752e-03
1.350576282250884105e+03 3.162277660168379394e-03
1.434379146858142803e+03 5.623413251903490971e-03
1.534002547201250081e+03 1.000000000000000021e-02
1.677167458324769314e+03 1.778279410038922925e-02
1.890917802022996057e+03 3.162277660168379134e-02
2.130182814453747596e+03 5.623413251903491145e-02
2.350412126946766875e+03 1.000000000000000056e-01
2.552443562063889658e+03 1.778279410038922925e-01
2.742969073244596075e+03 3.162277660168379412e-01
2.928823341631106814e+03 5.623413251903490728e-01
3.115323873526143871e+03 1.000000000000000000e+00
3.307176221533357420e+03 1.778279410038922759e+00
3.509069452541061764e+03 3.162277660168379523e+00
3.725622269394543309e+03 5.623413251903491172e+00
3.961588986589610613e+03 1.000000000000000000e+01
4.222253366823755641e+03 1.778279410038922848e+01
4.513972034519303634e+03 3.162277660168379256e+01
4.845217880128149773e+03 5.623413251903490817e+01
5.231617058084346354e+03 1.000000000000000000e+02
5.683283123227296528e+03 1.778279410038922776e+02
6.220258525690275746e+03 3.162277660168379612e+02
