# Temperature (K), Pressure (bars)
2.144256150330457785e+03 9.999999999999999547e-07
2.169649836984834565e+03 1.778279410038922901e-06
2.195043523639212253e+03 3.162277660168379191e-06
2.223002949782227006e+03 5.623413251903491208e-06
2.253912370981437107e+03 1.000000000000000082e-05
2.288279064418572034e+03 1.778279410038922901e-05
2.326795417176163028e+03 3.162277660168379530e-05
2.368323497149813193e+03 5.623413251903490700e-05
2.410785670405452038e+03 1.000000000000000048e-04
2.452153889398147385e+03 1.778279410038922698e-04
2.490391504053997778e+03 3.162277660168379394e-04
2.524420568597642614e+03 5.623413251903490971e-04
2.554875288818679564e+03 1.000000000000000021e-03
2.583648671573061620e+03 1.778279410038922752e-03
2.613679500053543052e+03 3.162277660168379394e-03
2.647592677460191226e+03 5.623413251903490971e-03
2.689845726375540380e+03 1.000000000000000021e-02
2.742386910248822915e+03 1.778279410038922925e-02
2.813574750952192062e+03 3.162277660168379134e-02
2.919215357342898642e+03 5.623413251903491145e-02
3.054067696702674311e+03 1.000000000000000056e-01
3.206911275352291341e+03 1.778279410038922925e-01
3.379287619190847636e+03 3.162277660168379412e-01
3.574167902416163543e+03 5.623413251903490728e-01
3.793616687485451166e+03 1.000000000000000000e+00
4.040395472420953411e+03 1.778279410038922759e+00
4.320887725719541777e+03 3.162277660168379523e+00
4.647260759816298560e+03 5.623413251903491172e+00
5.030191954837650883e+03 1.000000000000000000e+01
5.510249597059726511e+03 1.778279410038922848e+01
6.142368912419021399e+03 3.162277660168379256e+01
7.026619165112725568e+03 5.623413251903490817e+01
8.324332367749202604e+03 1.000000000000000000e+02
1.000000000000000000e+04 1.778279410038922776e+02
1.000000000000000000e+04 3.162277660168379612e+02
