# Temperature (K), Pressure (bars)
1.585514934673532480e+03 9.999999999999999547e-07
1.586145036797760440e+03 1.778279410038922901e-06
1.586775139019630387e+03 3.162277660168379191e-06
1.592612895168744899e+03 5.623413251903491208e-06
1.605171874545373157e+03 1.000000000000000082e-05
1.623427719978402365e+03 1.778279410038922901e-05
1.646125036918871501e+03 3.162277660168379530e-05
1.674083479793691367e+03 5.623413251903490700e-05
1.708899521648038672e+03 1.000000000000000048e-04
1.748199415189516913e+03 1.778279410038922698e-04
1.790402345620403594e+03 3.162277660168379394e-04
1.837052749815165726e+03 5.623413251903490971e-04
1.888003806316806276e+03 1.000000000000000021e-03
1.942006902749596520e+03 1.778279410038922752e-03
1.999698644216081220e+03 3.162277660168379394e-03
2.061187112901956425e+03 5.623413251903490971e-03
2.130619424946154595e+03 1.000000000000000021e-02
2.206148286077930607e+03 1.778279410038922925e-02
2.304659065967591232e+03 3.162277660168379134e-02
2.450298133990702809e+03 5.623413251903491145e-02
2.612643648153388312e+03 1.000000000000000056e-01
2.770437730199209000e+03 1.778279410038922925e-01
2.935107248325697583e+03 3.162277660168379412e-01
3.109765022543036139e+03 5.623413251903490728e-01
3.295794555892331118e+03 1.000000000000000000e+00
3.493887986511527743e+03 1.778279410038922759e+00
3.706094070315592489e+03 3.162277660168379523e+00
3.936464788939110804e+03 5.623413251903491172e+00
4.190503401190882869e+03 1.000000000000000000e+01
4.474976894948012159e+03 1.778279410038922848e+01
4.798678811833912732e+03 3.162277660168379256e+01
5.176462889545631697e+03 5.623413251903490817e+01
5.621676166739930522e+03 1.000000000000000000e+02
6.157400927003880497e+03 1.778279410038922776e+02
6.818370899435013598e+03 3.162277660168379612e+02
