# Temperature (K), Pressure (bars)
2.258662759094534067e+03 9.999999999999999547e-07
2.278954493576387904e+03 1.778279410038922901e-06
2.299246228058241741e+03 3.162277660168379191e-06
2.328391455340612993e+03 5.623413251903491208e-06
2.362193773857795350e+03 1.000000000000000082e-05
2.399357696021607808e+03 1.778279410038922901e-05
2.441202925335556756e+03 3.162277660168379530e-05
2.487475365754046834e+03 5.623413251903490700e-05
2.537672484753694334e+03 1.000000000000000048e-04
2.591064417634125675e+03 1.778279410038922698e-04
2.646575259880775775e+03 3.162277660168379394e-04
2.701917607668824076e+03 5.623413251903490971e-04
2.754840904453566054e+03 1.000000000000000021e-03
2.803053565261186577e+03 1.778279410038922752e-03
2.844175788232730611e+03 3.162277660168379394e-03
2.879987874310969346e+03 5.623413251903490971e-03
2.915251055680674654e+03 1.000000000000000021e-02
2.960055556895703376e+03 1.778279410038922925e-02
3.016146095113753290e+03 3.162277660168379134e-02
3.099810409435731344e+03 5.623413251903491145e-02
3.238939145110914069e+03 1.000000000000000056e-01
3.413350084801591038e+03 1.778279410038922925e-01
3.608204588967963446e+03 3.162277660168379412e-01
3.838954010629116055e+03 5.623413251903490728e-01
4.119660686945532689e+03 1.000000000000000000e+00
4.422318569182181818e+03 1.778279410038922759e+00
4.802147942024373151e+03 3.162277660168379523e+00
5.310451044584903684e+03 5.623413251903491172e+00
6.046711110595100763e+03 1.000000000000000000e+01
7.173704141978394546e+03 1.778279410038922848e+01
8.781520508494839305e+03 3.162277660168379256e+01
1.000000000000000000e+04 5.623413251903490817e+01
1.000000000000000000e+04 1.000000000000000000e+02
1.000000000000000000e+04 1.778279410038922776e+02
1.000000000000000000e+04 3.162277660168379612e+02
