# Temperature (K), Pressure (bars)
2.262852035715656712e+03 9.999999999999999547e-07
2.280198371124233745e+03 1.778279410038922901e-06
2.297544706532811233e+03 3.162277660168379191e-06
2.322738236730473545e+03 5.623413251903491208e-06
2.352664566064682731e+03 1.000000000000000082e-05
2.383678001741004664e+03 1.778279410038922901e-05
2.415973237349990995e+03 3.162277660168379530e-05
2.449413281197183096e+03 5.623413251903490700e-05
2.482926567941121448e+03 1.000000000000000048e-04
2.514030099459895155e+03 1.778279410038922698e-04
2.539696755747143925e+03 3.162277660168379394e-04
2.559514019631274550e+03 5.623413251903490971e-04
2.578759262996095458e+03 1.000000000000000021e-03
2.605651342522364757e+03 1.778279410038922752e-03
2.646128713258594871e+03 3.162277660168379394e-03
2.698006552667511187e+03 5.623413251903490971e-03
2.756418176157059861e+03 1.000000000000000021e-02
2.807102288585092083e+03 1.778279410038922925e-02
2.867081303180434588e+03 3.162277660168379134e-02
2.979806502277258460e+03 5.623413251903491145e-02
3.127383014549273867e+03 1.000000000000000056e-01
3.286722629302497353e+03 1.778279410038922925e-01
3.467956482393051829e+03 3.162277660168379412e-01
3.675664881902325305e+03 5.623413251903490728e-01
3.913407052974549515e+03 1.000000000000000000e+00
4.186330381811704683e+03 1.778279410038922759e+00
4.506075463501955710e+03 3.162277660168379523e+00
4.875829941170985876e+03 5.623413251903491172e+00
5.350231288767283331e+03 1.000000000000000000e+01
6.003637115946100494e+03 1.778279410038922848e+01
6.976252644923511980e+03 3.162277660168379256e+01
8.412725760622413873e+03 5.623413251903490817e+01
1.000000000000000000e+04 1.000000000000000000e+02
1.000000000000000000e+04 1.778279410038922776e+02
1.000000000000000000e+04 3.162277660168379612e+02
