# Temperature (K), Pressure (bars)
9.064200583995766465e+02 1.000000000000000048e-04
9.545606748368705894e+02 1.778279410038922698e-04
1.002701293393890637e+03 3.162277660168379394e-04
1.051775333405232459e+03 5.623413251903490971e-04
1.101783471182024414e+03 1.000000000000000021e-03
1.152650106498568675e+03 1.778279410038922752e-03
1.204866222224773082e+03 3.162277660168379394e-03
1.260525303585935035e+03 5.623413251903490971e-03
1.322883069506745414e+03 1.000000000000000021e-02
1.414778911401830783e+03 1.778279410038922925e-02
1.582214108186057047e+03 3.162277660168379134e-02
1.821353251312401198e+03 5.623413251903491145e-02
2.074084254967463039e+03 1.000000000000000056e-01
2.309425618699717688e+03 1.778279410038922925e-01
2.527328723412812906e+03 3.162277660168379412e-01
2.732479983711653404e+03 5.623413251903490728e-01
2.931555419124238142e+03 1.000000000000000000e+00
3.130348439576210239e+03 1.778279410038922759e+00
3.334332436958721246e+03 3.162277660168379523e+00
3.548845893147704373e+03 5.623413251903491172e+00
3.778945395262990132e+03 1.000000000000000000e+01
4.029899078475353690e+03 1.778279410038922848e+01
4.309858379007457188e+03 3.162277660168379256e+01
4.624041159299561514e+03 5.623413251903490817e+01
4.980856424207346208e+03 1.000000000000000000e+02
5.384071809695689808e+03 1.778279410038922776e+02
5.861199257872965063e+03 3.162277660168379612e+02
