# Temperature (K), Pressure (bars)
2.342510939477359443e+03 9.999999999999999547e-07
2.364482521274735063e+03 1.778279410038922901e-06
2.386454103072109774e+03 3.162277660168379191e-06
2.413321024998069788e+03 5.623413251903491208e-06
2.444757874261129928e+03 1.000000000000000082e-05
2.478966454705654087e+03 1.778279410038922901e-05
2.515241262078407544e+03 3.162277660168379530e-05
2.553260517167307171e+03 5.623413251903490700e-05
2.592821531836070790e+03 1.000000000000000048e-04
2.632671219455421578e+03 1.778279410038922698e-04
2.670348378823448002e+03 3.162277660168379394e-04
2.703578204896874013e+03 5.623413251903490971e-04
2.731931650234688277e+03 1.000000000000000021e-03
2.757858162819572499e+03 1.778279410038922752e-03
2.786311860904730111e+03 3.162277660168379394e-03
2.822613172724707965e+03 5.623413251903490971e-03
2.871508401974834669e+03 1.000000000000000021e-02
2.935580254492586846e+03 1.778279410038922925e-02
3.019238336315952438e+03 3.162277660168379134e-02
3.133202369251486289e+03 5.623413251903491145e-02
3.280079741588168417e+03 1.000000000000000056e-01
3.454089329272025680e+03 1.778279410038922925e-01
3.647464698199637951e+03 3.162277660168379412e-01
3.872045979721579442e+03 5.623413251903490728e-01
4.138016153647037754e+03 1.000000000000000000e+00
4.446785079452883110e+03 1.778279410038922759e+00
4.838186706610717920e+03 3.162277660168379523e+00
5.371427881888852426e+03 5.623413251903491172e+00
6.165145488904257945e+03 1.000000000000000000e+01
7.396972529917401516e+03 1.778279410038922848e+01
9.075217530645992156e+03 3.162277660168379256e+01
1.000000000000000000e+04 5.623413251903490817e+01
1.000000000000000000e+04 1.000000000000000000e+02
1.000000000000000000e+04 1.778279410038922776e+02
1.000000000000000000e+04 3.162277660168379612e+02
