# Temperature (K), Pressure (bars)
2.348339828476322054e+03 9.999999999999999547e-07
2.368784326947587033e+03 1.778279410038922901e-06
2.389228825418852466e+03 3.162277660168379191e-06
2.416610267110347650e+03 5.623413251903491208e-06
2.449135377335714111e+03 1.000000000000000082e-05
2.483183664468830557e+03 1.778279410038922901e-05
2.518587486727901705e+03 3.162277660168379530e-05
2.554529094493118919e+03 5.623413251903490700e-05
2.589474299832609177e+03 1.000000000000000048e-04
2.620542470283222428e+03 1.778279410038922698e-04
2.642127202988595855e+03 3.162277660168379394e-04
2.653771232761942883e+03 5.623413251903490971e-04
2.667652066816398928e+03 1.000000000000000021e-03
2.698384316409260009e+03 1.778279410038922752e-03
2.750525037895662990e+03 3.162277660168379394e-03
2.819364238476434821e+03 5.623413251903490971e-03
2.900847636999094902e+03 1.000000000000000021e-02
2.987249413532967537e+03 1.778279410038922925e-02
3.085614902867864657e+03 3.162277660168379134e-02
3.221493254523558790e+03 5.623413251903491145e-02
3.395194302198963214e+03 1.000000000000000056e-01
3.587870696808253797e+03 1.778279410038922925e-01
3.817280402200658045e+03 3.162277660168379412e-01
4.087663940438216287e+03 5.623413251903490728e-01
4.418345780452701547e+03 1.000000000000000000e+00
4.870884938342383975e+03 1.778279410038922759e+00
5.570010114976234945e+03 3.162277660168379523e+00
6.703453978920131703e+03 5.623413251903491172e+00
8.266478559481412958e+03 1.000000000000000000e+01
1.000000000000000000e+04 1.778279410038922848e+01
1.000000000000000000e+04 3.162277660168379256e+01
1.000000000000000000e+04 5.623413251903490817e+01
1.000000000000000000e+04 1.000000000000000000e+02
1.000000000000000000e+04 1.778279410038922776e+02
1.000000000000000000e+04 3.162277660168379612e+02
