# Temperature (K), Pressure (bars)
8.038741377594649293e+02 9.999999999999999547e-07
8.565748263507904312e+02 1.778279410038922901e-06
9.092755149449569672e+02 3.162277660168379191e-06
9.701912015361497197e+02 5.623413251903491208e-06
1.039673967149071359e+03 1.000000000000000082e-05
1.131158021921150521e+03 1.778279410038922901e-05
1.252728229294451921e+03 3.162277660168379530e-05
1.389941673817903393e+03 5.623413251903490700e-05
1.535002204185600931e+03 1.000000000000000048e-04
1.653594355357768109e+03 1.778279410038922698e-04
1.725092800152913242e+03 3.162277660168379394e-04
1.776254501194567638e+03 5.623413251903490971e-04
1.829273283424153306e+03 1.000000000000000021e-03
1.887414928754299581e+03 1.778279410038922752e-03
1.948541137322594750e+03 3.162277660168379394e-03
2.017125918767832900e+03 5.623413251903490971e-03
2.095236200619202464e+03 1.000000000000000021e-02
2.193848443199912708e+03 1.778279410038922925e-02
2.328341925265784994e+03 3.162277660168379134e-02
2.483476252432415549e+03 5.623413251903491145e-02
2.642049610685830430e+03 1.000000000000000056e-01
2.806179088229847366e+03 1.778279410038922925e-01
2.978160877176666872e+03 3.162277660168379412e-01
3.158352662804356896e+03 5.623413251903490728e-01
3.346839009001908835e+03 1.000000000000000000e+00
3.545694146741614531e+03 1.778279410038922759e+00
3.759005764437360995e+03 3.162277660168379523e+00
3.991864692949759501e+03 5.623413251903491172e+00
4.250078541301430050e+03 1.000000000000000000e+01
4.540679547257323975e+03 1.778279410038922848e+01
4.873109548269748302e+03 3.162277660168379256e+01
5.263634334663021036e+03 5.623413251903490817e+01
5.726553399562614686e+03 1.000000000000000000e+02
6.287151659931963877e+03 1.778279410038922776e+02
6.984528933267482898e+03 3.162277660168379612e+02
