# Temperature (K), Pressure (bars)
9.535905490632617330e+02 5.623413251903490971e-04
1.000337975047450072e+03 1.000000000000000021e-03
1.047085401201534523e+03 1.778279410038922752e-03
1.090560399434523788e+03 3.162277660168379394e-03
1.133099591644858947e+03 5.623413251903490971e-03
1.177120248147500206e+03 1.000000000000000021e-02
1.224802358727821911e+03 1.778279410038922925e-02
1.277053302352838273e+03 3.162277660168379134e-02
1.338870555429338765e+03 5.623413251903491145e-02
1.423256081631010375e+03 1.000000000000000056e-01
1.536311695942386677e+03 1.778279410038922925e-01
1.676255366385939396e+03 3.162277660168379412e-01
1.834263645695008563e+03 5.623413251903490728e-01
2.014765836563920402e+03 1.000000000000000000e+00
2.248716299088456253e+03 1.778279410038922759e+00
2.525544064788839023e+03 3.162277660168379523e+00
2.798864990210844553e+03 5.623413251903491172e+00
3.059572838151229007e+03 1.000000000000000000e+01
3.320179100674485653e+03 1.778279410038922848e+01
3.589787054377911772e+03 3.162277660168379256e+01
3.875285649996704706e+03 5.623413251903490817e+01
4.183876510296849119e+03 1.000000000000000000e+02
4.519064049888110276e+03 1.778279410038922776e+02
4.897311789930254236e+03 3.162277660168379612e+02
