# Temperature (K), Pressure (bars)
9.655239720646713977e+02 1.778279410038922901e-05
1.014989274506129391e+03 3.162277660168379530e-05
1.064454578686732702e+03 5.623413251903490700e-05
1.112791680027824668e+03 1.000000000000000048e-04
1.159294931791296676e+03 1.778279410038922698e-04
1.205787395745500589e+03 3.162277660168379394e-04
1.255633752422024600e+03 5.623413251903490971e-04
1.313386816948921251e+03 1.000000000000000021e-03
1.388536603221475161e+03 1.778279410038922752e-03
1.477005230691231645e+03 3.162277660168379394e-03
1.567941981818463773e+03 5.623413251903490971e-03
1.667816149663158512e+03 1.000000000000000021e-02
1.768224093849252085e+03 1.778279410038922925e-02
1.866554542169858678e+03 3.162277660168379134e-02
1.973710306602012906e+03 5.623413251903491145e-02
2.116639405962486762e+03 1.000000000000000056e-01
2.318775912470691765e+03 1.778279410038922925e-01
2.534083819557225979e+03 3.162277660168379412e-01
2.732535087594209017e+03 5.623413251903490728e-01
2.928877103217519107e+03 1.000000000000000000e+00
3.128357199246399887e+03 1.778279410038922759e+00
3.334359069473991894e+03 3.162277660168379523e+00
3.550772659208656933e+03 5.623413251903491172e+00
3.782361172590097340e+03 1.000000000000000000e+01
4.034465435176158735e+03 1.778279410038922848e+01
4.315013917505486461e+03 3.162277660168379256e+01
4.629867276450770987e+03 5.623413251903490817e+01
4.987562432350619019e+03 1.000000000000000000e+02
5.392002591686527921e+03 1.778279410038922776e+02
5.870984852918776596e+03 3.162277660168379612e+02
