# Temperature (K), Pressure (bars)
7.375817642552443658e+02 3.162277660168379530e-05
7.836471515315305396e+02 5.623413251903490700e-05
8.297125397889778924e+02 1.000000000000000048e-04
8.746590471087966989e+02 1.778279410038922698e-04
9.199148160674365045e+02 3.162277660168379394e-04
9.673456717142461230e+02 5.623413251903490971e-04
1.018984506176930040e+03 1.000000000000000021e-03
1.077719293734476878e+03 1.778279410038922752e-03
1.145706597828769191e+03 3.162277660168379394e-03
1.227477997083861737e+03 5.623413251903490971e-03
1.327707733705115288e+03 1.000000000000000021e-02
1.467495920060626304e+03 1.778279410038922925e-02
1.674015459671173403e+03 3.162277660168379134e-02
1.924444981080714115e+03 5.623413251903491145e-02
2.174230036955040759e+03 1.000000000000000056e-01
2.404294443149682138e+03 1.778279410038922925e-01
2.613286400917370429e+03 3.162277660168379412e-01
2.808545856657970035e+03 5.623413251903490728e-01
2.998727822029488834e+03 1.000000000000000000e+00
3.190938997456766629e+03 1.778279410038922759e+00
3.390878137488390166e+03 3.162277660168379523e+00
3.603380993659306569e+03 5.623413251903491172e+00
3.833035297423933571e+03 1.000000000000000000e+01
4.084922972421834857e+03 1.778279410038922848e+01
4.367514273461032644e+03 3.162277660168379256e+01
4.685647674398430354e+03 5.623413251903490817e+01
5.048035186603223337e+03 1.000000000000000000e+02
5.458908989335157457e+03 1.778279410038922776e+02
5.946948665516113579e+03 3.162277660168379612e+02
