# Temperature (K), Pressure (bars)
1.533041630063043613e+03 9.999999999999999547e-07
1.561390464832705675e+03 1.778279410038922901e-06
1.589739299661921223e+03 3.162277660168379191e-06
1.628785641480638787e+03 5.623413251903491208e-06
1.677728735239975322e+03 1.000000000000000082e-05
1.745864837149237928e+03 1.778279410038922901e-05
1.817530950461911971e+03 3.162277660168379530e-05
1.875464902136081946e+03 5.623413251903490700e-05
1.925420924381190844e+03 1.000000000000000048e-04
1.969279632677680411e+03 1.778279410038922698e-04
2.007889266813553604e+03 3.162277660168379394e-04
2.043634551488935813e+03 5.623413251903490971e-04
2.077101744210314791e+03 1.000000000000000021e-03
2.110033433308829444e+03 1.778279410038922752e-03
2.144266783362607384e+03 3.162277660168379394e-03
2.182213280409226627e+03 5.623413251903490971e-03
2.225053347560489328e+03 1.000000000000000021e-02
2.278570850368355423e+03 1.778279410038922925e-02
2.341436475449250338e+03 3.162277660168379134e-02
2.432266917092700169e+03 5.623413251903491145e-02
2.578115084475479762e+03 1.000000000000000056e-01
2.745774581551065239e+03 1.778279410038922925e-01
2.911687811560737828e+03 3.162277660168379412e-01
3.087467575336137088e+03 5.623413251903490728e-01
3.274155799779361587e+03 1.000000000000000000e+00
3.472241447838868680e+03 1.778279410038922759e+00
3.683778657857975304e+03 3.162277660168379523e+00
3.912841704414613559e+03 5.623413251903491172e+00
4.164857216245512973e+03 1.000000000000000000e+01
4.446370331605995489e+03 1.778279410038922848e+01
4.765880368296322558e+03 3.162277660168379256e+01
5.138023970533194188e+03 5.623413251903490817e+01
5.575047884006715321e+03 1.000000000000000000e+02
6.098446578586999749e+03 1.778279410038922776e+02
6.740374172409531639e+03 3.162277660168379612e+02
