# Temperature (K), Pressure (bars)
9.319662897246197417e+02 9.999999999999999547e-07
9.536178288033972876e+02 1.778279410038922901e-06
9.752693678855021062e+02 3.162277660168379191e-06
1.001976135173598323e+03 5.623413251903491208e-06
1.033987444259502581e+03 1.000000000000000082e-05
1.070838124883910723e+03 1.778279410038922901e-05
1.112590221600122049e+03 3.162277660168379530e-05
1.158244542327170393e+03 5.623413251903490700e-05
1.207571006564911158e+03 1.000000000000000048e-04
1.260408105718899606e+03 1.778279410038922698e-04
1.316623002895940772e+03 3.162277660168379394e-04
1.377624938352694244e+03 5.623413251903490971e-04
1.445502340251502346e+03 1.000000000000000021e-03
1.523807047908159348e+03 1.778279410038922752e-03
1.616059184332374571e+03 3.162277660168379394e-03
1.733299220897218675e+03 5.623413251903490971e-03
1.897285988343878671e+03 1.000000000000000021e-02
2.098554579492295488e+03 1.778279410038922925e-02
2.297852097617032086e+03 3.162277660168379134e-02
2.481578833479879904e+03 5.623413251903491145e-02
2.657437578339665833e+03 1.000000000000000056e-01
2.830817017274387581e+03 1.778279410038922925e-01
3.005515572276507555e+03 3.162277660168379412e-01
3.184381163865394228e+03 5.623413251903490728e-01
3.370311453905265353e+03 1.000000000000000000e+00
3.567085961780961043e+03 1.778279410038922759e+00
3.779228632505005862e+03 3.162277660168379523e+00
4.011714245898029731e+03 5.623413251903491172e+00
4.270257985108693902e+03 1.000000000000000000e+01
4.561956060623730082e+03 1.778279410038922848e+01
4.896467927738307480e+03 3.162277660168379256e+01
5.290637873990503067e+03 5.623413251903490817e+01
5.759446961185569307e+03 1.000000000000000000e+02
6.329297983268828830e+03 1.778279410038922776e+02
7.040572318477336012e+03 3.162277660168379612e+02
