# Temperature (K), Pressure (bars)
1.087386649600366354e+03 1.000000000000000048e-04
1.128988706315017907e+03 1.778279410038922698e-04
1.170590765561828448e+03 3.162277660168379394e-04
1.216551254434462180e+03 5.623413251903490971e-04
1.267180488518786660e+03 1.000000000000000021e-03
1.322250036499843645e+03 1.778279410038922752e-03
1.383278828986318331e+03 3.162277660168379394e-03
1.447811877598935098e+03 5.623413251903490971e-03
1.518981196967641836e+03 1.000000000000000021e-02
1.606049661584163005e+03 1.778279410038922925e-02
1.699076289524502954e+03 3.162277660168379134e-02
1.791212122292053436e+03 5.623413251903491145e-02
1.897925623764412649e+03 1.000000000000000056e-01
2.030893961377041478e+03 1.778279410038922925e-01
2.211857642892319291e+03 3.162277660168379412e-01
2.443666735539705769e+03 5.623413251903490728e-01
2.677519141906645473e+03 1.000000000000000000e+00
2.894494368371586461e+03 1.778279410038922759e+00
3.110619654779471603e+03 3.162277660168379523e+00
3.331795744899423880e+03 5.623413251903491172e+00
3.562873556482908498e+03 1.000000000000000000e+01
3.809295446561351582e+03 1.778279410038922848e+01
4.078669537615903664e+03 3.162277660168379256e+01
4.376453095146913256e+03 5.623413251903490817e+01
4.709943344499148225e+03 1.000000000000000000e+02
5.082333800369073288e+03 1.778279410038922776e+02
5.516139102842596003e+03 3.162277660168379612e+02
