# Temperature (K), Pressure (bars)
2.211570961252078177e+03 9.999999999999999547e-07
2.248687613011729809e+03 1.778279410038922901e-06
2.285804265296626909e+03 3.162277660168379191e-06
2.320822274970006220e+03 5.623413251903491208e-06
2.352497845071539359e+03 1.000000000000000082e-05
2.379981471120900551e+03 1.778279410038922901e-05
2.404424638783541923e+03 3.162277660168379530e-05
2.428642959091092962e+03 5.623413251903490700e-05
2.456783860936872770e+03 1.000000000000000048e-04
2.493732603874004781e+03 1.778279410038922698e-04
2.543022893205172750e+03 3.162277660168379394e-04
2.606021083969194478e+03 5.623413251903490971e-04
2.682764976523832047e+03 1.000000000000000021e-03
2.772940036672112910e+03 1.778279410038922752e-03
2.876310921881849936e+03 3.162277660168379394e-03
2.991478417745216575e+03 5.623413251903490971e-03
3.118209123434456160e+03 1.000000000000000021e-02
3.256986846100681760e+03 1.778279410038922925e-02
3.417140021942921521e+03 3.162277660168379134e-02
3.649296624390029592e+03 5.623413251903491145e-02
3.970075575921598556e+03 1.000000000000000056e-01
4.503338076325454495e+03 1.778279410038922925e-01
5.409409270912297870e+03 3.162277660168379412e-01
6.704193993659961961e+03 5.623413251903490728e-01
8.219716192028974547e+03 1.000000000000000000e+00
9.665716494983496887e+03 1.778279410038922759e+00
1.115330820712595232e+04 3.162277660168379523e+00
1.297421146061542095e+04 5.623413251903491172e+00
1.528658585002344626e+04 1.000000000000000000e+01
1.821775812046053034e+04 1.778279410038922848e+01
2.191748354419652969e+04 3.162277660168379256e+01
2.655571956038303324e+04 5.623413251903490817e+01
3.230907166069815503e+04 1.000000000000000000e+02
3.933148715153240482e+04 1.778279410038922776e+02
4.770915974503340840e+04 3.162277660168379612e+02
