# Temperature (K), Pressure (bars)
2.132592697456891528e+03 9.999999999999999547e-07
2.155123044558096808e+03 1.778279410038922901e-06
2.177653391659411227e+03 3.162277660168379191e-06
2.204149593765682766e+03 5.623413251903491208e-06
2.234026322175701807e+03 1.000000000000000082e-05
2.267028617143359043e+03 1.778279410038922901e-05
2.303937198744264151e+03 3.162277660168379530e-05
2.343895514840341548e+03 5.623413251903490700e-05
2.384639872640225803e+03 1.000000000000000048e-04
2.423772278731639744e+03 1.778279410038922698e-04
2.459767816589065660e+03 3.162277660168379394e-04
2.492008637186179385e+03 5.623413251903490971e-04
2.521172088750020521e+03 1.000000000000000021e-03
2.549093964072340896e+03 1.778279410038922752e-03
2.578622141662031936e+03 3.162277660168379394e-03
2.612245875221487040e+03 5.623413251903490971e-03
2.654127739954159097e+03 1.000000000000000021e-02
2.705782375667917222e+03 1.778279410038922925e-02
2.776288480137392071e+03 3.162277660168379134e-02
2.882115773139384601e+03 5.623413251903491145e-02
3.016413974690482974e+03 1.000000000000000056e-01
3.167244685585191291e+03 1.778279410038922925e-01
3.336481059525026012e+03 3.162277660168379412e-01
3.526733134530169536e+03 5.623413251903490728e-01
3.739732040723280079e+03 1.000000000000000000e+00
3.977576577973854910e+03 1.778279410038922759e+00
4.245252862494291549e+03 3.162277660168379523e+00
4.552259804220781916e+03 5.623413251903491172e+00
4.907451019006729439e+03 1.000000000000000000e+01
5.341838015768719742e+03 1.778279410038922848e+01
5.894404565427708803e+03 3.162277660168379256e+01
6.633902374971838981e+03 5.623413251903490817e+01
7.683600337355188458e+03 1.000000000000000000e+02
9.194641455934301121e+03 1.778279410038922776e+02
1.112145387407441922e+04 3.162277660168379612e+02
