# Temperature (K), Pressure (bars)
1.616128138100192928e+03 5.623413251903491208e-06
1.622128163477441603e+03 1.000000000000000082e-05
1.635294069457499063e+03 1.778279410038922901e-05
1.654184881450993771e+03 3.162277660168379530e-05
1.679266768523541487e+03 5.623413251903490700e-05
1.712559428954285977e+03 1.000000000000000048e-04
1.751928258544165828e+03 1.778279410038922698e-04
1.794991319711623646e+03 3.162277660168379394e-04
1.842539081644839825e+03 5.623413251903490971e-04
1.894156817294447364e+03 1.000000000000000021e-03
1.948731243046256623e+03 1.778279410038922752e-03
2.006625705413257265e+03 3.162277660168379394e-03
2.067869494040580321e+03 5.623413251903490971e-03
2.135036298677593550e+03 1.000000000000000021e-02
2.208408544033361068e+03 1.778279410038922925e-02
2.299745944428239909e+03 3.162277660168379134e-02
2.428618131190424265e+03 5.623413251903491145e-02
2.581219190097730916e+03 1.000000000000000056e-01
2.738374857591600630e+03 1.778279410038922925e-01
2.901070408984041478e+03 3.162277660168379412e-01
3.072162797155484441e+03 5.623413251903490728e-01
3.254262245785727373e+03 1.000000000000000000e+00
3.449428996904672204e+03 1.778279410038922759e+00
3.659533643186058725e+03 3.162277660168379523e+00
3.887465596094802095e+03 5.623413251903491172e+00
4.137803356384872131e+03 1.000000000000000000e+01
4.416756916546287357e+03 1.778279410038922848e+01
4.732300129741244746e+03 3.162277660168379256e+01
5.095232689439171736e+03 5.623413251903490817e+01
5.523800907203058159e+03 1.000000000000000000e+02
6.034787487937677724e+03 1.778279410038922776e+02
6.657097258590562888e+03 3.162277660168379612e+02
