# Temperature (K), Pressure (bars)
9.763349878896219707e+02 5.623413251903491208e-06
1.022638415604425631e+03 1.000000000000000082e-05
1.069017760470775784e+03 1.778279410038922901e-05
1.117048334995832192e+03 3.162277660168379530e-05
1.166660594747094137e+03 5.623413251903490700e-05
1.218787396714450779e+03 1.000000000000000048e-04
1.273515710188896264e+03 1.778279410038922698e-04
1.331380207781110585e+03 3.162277660168379394e-04
1.394703308549549092e+03 5.623413251903490971e-04
1.466231334060487370e+03 1.000000000000000021e-03
1.549188740262851070e+03 1.778279410038922752e-03
1.650433451379627741e+03 3.162277660168379394e-03
1.777361290426637879e+03 5.623413251903490971e-03
1.938927013287673390e+03 1.000000000000000021e-02
2.130222092103444993e+03 1.778279410038922925e-02
2.322216807528411664e+03 3.162277660168379134e-02
2.501625128162734654e+03 5.623413251903491145e-02
2.675200000095433552e+03 1.000000000000000056e-01
2.847476707448946854e+03 1.778279410038922925e-01
3.021764892052298364e+03 3.162277660168379412e-01
3.200617609568594162e+03 5.623413251903490728e-01
3.386867845660222429e+03 1.000000000000000000e+00
3.584350154384222151e+03 1.778279410038922759e+00
3.797635336377471504e+03 3.162277660168379523e+00
4.031774572187596277e+03 5.623413251903491172e+00
4.292627789986420794e+03 1.000000000000000000e+01
4.587518427040548886e+03 1.778279410038922848e+01
4.926491090314733810e+03 3.162277660168379256e+01
5.326923651829998562e+03 5.623413251903490817e+01
5.804768341973976931e+03 1.000000000000000000e+02
6.388597215976022198e+03 1.778279410038922776e+02
7.122385238520871098e+03 3.162277660168379612e+02
