# Temperature (K), Pressure (bars)
9.690840243032214403e+02 1.000000000000000082e-05
1.007489247099586237e+03 1.778279410038922901e-05
1.049631305547582997e+03 3.162277660168379530e-05
1.094862391364131099e+03 5.623413251903490700e-05
1.143346503292088528e+03 1.000000000000000048e-04
1.195241348803202072e+03 1.778279410038922698e-04
1.250895763208778817e+03 3.162277660168379394e-04
1.311695058851364593e+03 5.623413251903490971e-04
1.379837177470247752e+03 1.000000000000000021e-03
1.458264727544094058e+03 1.778279410038922752e-03
1.549781631770811373e+03 3.162277660168379394e-03
1.668327021845920626e+03 5.623413251903490971e-03
1.840006940606715261e+03 1.000000000000000021e-02
2.054827629418211473e+03 1.778279410038922925e-02
2.268418703289718906e+03 3.162277660168379134e-02
2.462696534357807650e+03 5.623413251903491145e-02
2.644739342396276697e+03 1.000000000000000056e-01
2.821146677673569684e+03 1.778279410038922925e-01
2.996606292651290914e+03 3.162277660168379412e-01
3.174759500335397206e+03 5.623413251903490728e-01
3.359295417897170410e+03 1.000000000000000000e+00
3.554453581607455362e+03 1.778279410038922759e+00
3.764807839209519443e+03 3.162277660168379523e+00
3.995223273958074969e+03 5.623413251903491172e+00
4.251250855801340549e+03 1.000000000000000000e+01
4.539719265595912475e+03 1.778279410038922848e+01
4.869915538947414461e+03 3.162277660168379256e+01
5.258318035102269278e+03 5.623413251903490817e+01
5.718685004499422575e+03 1.000000000000000000e+02
6.275995535419224325e+03 1.778279410038922776e+02
6.967518927643128336e+03 3.162277660168379612e+02
