# Temperature (K), Pressure (bars)
8.405586130786906551e+02 3.162277660168379530e-05
8.910503553450654408e+02 5.623413251903490700e-05
9.415421006885487714e+02 1.000000000000000048e-04
9.951026592077043915e+02 1.778279410038922698e-04
1.051828709441648016e+03 3.162277660168379394e-04
1.108505672816013657e+03 5.623413251903490971e-04
1.162305674763053275e+03 1.000000000000000021e-03
1.213389224184996692e+03 1.778279410038922752e-03
1.259706101594019174e+03 3.162277660168379394e-03
1.296948997621262379e+03 5.623413251903490971e-03
1.329235683175936629e+03 1.000000000000000021e-02
1.364546275789268520e+03 1.778279410038922925e-02
1.401754844940291605e+03 3.162277660168379134e-02
1.450979832882492929e+03 5.623413251903491145e-02
1.543171836715016070e+03 1.000000000000000056e-01
1.686546657677367875e+03 1.778279410038922925e-01
1.858633111240023027e+03 3.162277660168379412e-01
2.032901849456034597e+03 5.623413251903490728e-01
2.234340315694771562e+03 1.000000000000000000e+00
2.493802387514035217e+03 1.778279410038922759e+00
2.760797874344763841e+03 3.162277660168379523e+00
3.006996649479104690e+03 5.623413251903491172e+00
3.251688948680176964e+03 1.000000000000000000e+01
3.502744420389104107e+03 1.778279410038922848e+01
3.768469078532956246e+03 3.162277660168379256e+01
4.054971175792100894e+03 5.623413251903490817e+01
4.369064749940228467e+03 1.000000000000000000e+02
4.713809801354724186e+03 1.778279410038922776e+02
5.107292616815163456e+03 3.162277660168379612e+02
