# Temperature (K), Pressure (bars)
1.156536311984453050e+03 9.999999999999999547e-07
1.173398655752662762e+03 1.778279410038922901e-06
1.190260999543599610e+03 3.162277660168379191e-06
1.213648763411644723e+03 5.623413251903491208e-06
1.243708772737107438e+03 1.000000000000000082e-05
1.280684695668346649e+03 1.778279410038922901e-05
1.325163997958729851e+03 3.162277660168379530e-05
1.376398049587172864e+03 5.623413251903490700e-05
1.432756673215480077e+03 1.000000000000000048e-04
1.497112147568808950e+03 1.778279410038922698e-04
1.574339339776546012e+03 3.162277660168379394e-04
1.656446072364966767e+03 5.623413251903490971e-04
1.736141256216145621e+03 1.000000000000000021e-03
1.821087437698239228e+03 1.778279410038922752e-03
1.912012972526589920e+03 3.162277660168379394e-03
2.023305308254905867e+03 5.623413251903490971e-03
2.174849835527325013e+03 1.000000000000000021e-02
2.339831054597560524e+03 1.778279410038922925e-02
2.497691850065630206e+03 3.162277660168379134e-02
2.655894772518666286e+03 5.623413251903491145e-02
2.817349477035379095e+03 1.000000000000000056e-01
2.984568379051400370e+03 1.778279410038922925e-01
3.159432868148021953e+03 3.162277660168379412e-01
3.343129018986569463e+03 5.623413251903490728e-01
3.537529366451932674e+03 1.000000000000000000e+00
3.746352338182514359e+03 1.778279410038922759e+00
3.974757884715653745e+03 3.162277660168379523e+00
4.228967332870004611e+03 5.623413251903491172e+00
4.516775488848723398e+03 1.000000000000000000e+01
4.848930398894039172e+03 1.778279410038922848e+01
5.243052578017663109e+03 3.162277660168379256e+01
5.719646515213418752e+03 5.623413251903490817e+01
6.314146115363928402e+03 1.000000000000000000e+02
7.085317656290941159e+03 1.778279410038922776e+02
8.128793708379379495e+03 3.162277660168379612e+02
