# Temperature (K), Pressure (bars)
1.692071188145187989e+03 9.999999999999999547e-07
1.711401755982479699e+03 1.778279410038922901e-06
1.730732323823621527e+03 3.162277660168379191e-06
1.755604847459172561e+03 5.623413251903491208e-06
1.787354611461164495e+03 1.000000000000000082e-05
1.826306655371414536e+03 1.778279410038922901e-05
1.867848496533252273e+03 3.162277660168379530e-05
1.908826304926511966e+03 5.623413251903490700e-05
1.948671242123496540e+03 1.000000000000000048e-04
1.987932688490331202e+03 1.778279410038922698e-04
2.029258367218662897e+03 3.162277660168379394e-04
2.073555466152334702e+03 5.623413251903490971e-04
2.121248901139048030e+03 1.000000000000000021e-03
2.173482845254238782e+03 1.778279410038922752e-03
2.231850821163446199e+03 3.162277660168379394e-03
2.300067872068265387e+03 5.623413251903490971e-03
2.389272982287669493e+03 1.000000000000000021e-02
2.504299756071718548e+03 1.778279410038922925e-02
2.633023587540567860e+03 3.162277660168379134e-02
2.769003720686484940e+03 5.623413251903491145e-02
2.915339972934732032e+03 1.000000000000000056e-01
3.074260456238273036e+03 1.778279410038922925e-01
3.247668267061573715e+03 3.162277660168379412e-01
3.436232684623922069e+03 5.623413251903490728e-01
3.640359182625822541e+03 1.000000000000000000e+00
3.862490151801364846e+03 1.778279410038922759e+00
4.107873335975598820e+03 3.162277660168379523e+00
4.384217678436305505e+03 5.623413251903491172e+00
4.702180851562605312e+03 1.000000000000000000e+01
5.076601957828324885e+03 1.778279410038922848e+01
5.532358430476555441e+03 3.162277660168379256e+01
6.107359332297876790e+03 5.623413251903490817e+01
6.868672031409954798e+03 1.000000000000000000e+02
7.927779236555078569e+03 1.778279410038922776e+02
9.419995370627306329e+03 3.162277660168379612e+02
