# Temperature (K), Pressure (bars)
8.448553433111909499e+02 3.162277660168379394e-04
8.868545366456106649e+02 5.623413251903490971e-04
9.288537312484243103e+02 1.000000000000000021e-03
9.709230997427476950e+02 1.778279410038922752e-03
1.014312805977564722e+03 3.162277660168379394e-03
1.058264415688876397e+03 5.623413251903490971e-03
1.103528894351096369e+03 1.000000000000000021e-02
1.151554274260152170e+03 1.778279410038922925e-02
1.209235008870207139e+03 3.162277660168379134e-02
1.276860679613092543e+03 5.623413251903491145e-02
1.381240354337447116e+03 1.000000000000000056e-01
1.566761032620939886e+03 1.778279410038922925e-01
1.810731589452349908e+03 3.162277660168379412e-01
2.075164939584755757e+03 5.623413251903490728e-01
2.342696853081335576e+03 1.000000000000000000e+00
2.598443342418484008e+03 1.778279410038922759e+00
2.842068398779432300e+03 3.162277660168379523e+00
3.079260375058872341e+03 5.623413251903491172e+00
3.317795592659574595e+03 1.000000000000000000e+01
3.565148962896289504e+03 1.778279410038922848e+01
3.830184077286356114e+03 3.162277660168379256e+01
4.117750339800351867e+03 5.623413251903490817e+01
4.434544525377957143e+03 1.000000000000000000e+02
4.783721453813906919e+03 1.778279410038922776e+02
5.183712534799731657e+03 3.162277660168379612e+02
