# Temperature (K), Pressure (bars)
1.778275155762603390e+03 9.999999999999999547e-07
1.778875039558928165e+03 1.778279410038922901e-06
1.779474923356048976e+03 3.162277660168379191e-06
1.784867763755534725e+03 5.623413251903491208e-06
1.797373191018155012e+03 1.000000000000000082e-05
1.818421603092285750e+03 1.778279410038922901e-05
1.845151281616843789e+03 3.162277660168379530e-05
1.875345604875927393e+03 5.623413251903490700e-05
1.910672979850013689e+03 1.000000000000000048e-04
1.950291147142369027e+03 1.778279410038922698e-04
1.993006581465636145e+03 3.162277660168379394e-04
2.039370510316212176e+03 5.623413251903490971e-04
2.089483806610004194e+03 1.000000000000000021e-03
2.142972519960349473e+03 1.778279410038922752e-03
2.201628288065359357e+03 3.162277660168379394e-03
2.265562321902101303e+03 5.623413251903490971e-03
2.343444591731127730e+03 1.000000000000000021e-02
2.449965679069313865e+03 1.778279410038922925e-02
2.576428742096455153e+03 3.162277660168379134e-02
2.710339540643870350e+03 5.623413251903491145e-02
2.852581860151821729e+03 1.000000000000000056e-01
3.004866109782477906e+03 1.778279410038922925e-01
3.169280481349576803e+03 3.162277660168379412e-01
3.347986179076990084e+03 5.623413251903490728e-01
3.542732022805429551e+03 1.000000000000000000e+00
3.755162757361505555e+03 1.778279410038922759e+00
3.988253607427669067e+03 3.162277660168379523e+00
4.247405980542688667e+03 5.623413251903491172e+00
4.540577883779905278e+03 1.000000000000000000e+01
4.878918851043432369e+03 1.778279410038922848e+01
5.279640514858533606e+03 3.162277660168379256e+01
5.766169269308737967e+03 5.623413251903490817e+01
6.375263076901404020e+03 1.000000000000000000e+02
7.168583761962281642e+03 1.778279410038922776e+02
8.248996177741628344e+03 3.162277660168379612e+02
