# Temperature (K), Pressure (bars)
8.930387251811496299e+02 5.623413251903490700e-05
9.385568846301397343e+02 1.000000000000000048e-04
9.840750450560813078e+02 1.778279410038922698e-04
1.029131532021110388e+03 3.162277660168379394e-04
1.071126081277282310e+03 5.623413251903490971e-04
1.110174994210140085e+03 1.000000000000000021e-03
1.147655527041292544e+03 1.778279410038922752e-03
1.185290056459839434e+03 3.162277660168379394e-03
1.229186514989691432e+03 5.623413251903490971e-03
1.285598506221083426e+03 1.000000000000000021e-02
1.343947567080335602e+03 1.778279410038922925e-02
1.406815820972632309e+03 3.162277660168379134e-02
1.468778937852668832e+03 5.623413251903491145e-02
1.568720985362573401e+03 1.000000000000000056e-01
1.784748602153740421e+03 1.778279410038922925e-01
2.059345005108383702e+03 3.162277660168379412e-01
2.319688240122470688e+03 5.623413251903490728e-01
2.566016892396260573e+03 1.000000000000000000e+00
2.797251580008156452e+03 1.778279410038922759e+00
3.020302685294887851e+03 3.162277660168379523e+00
3.243592144502836618e+03 5.623413251903491172e+00
3.474374350269692968e+03 1.000000000000000000e+01
3.718943660266808365e+03 1.778279410038922848e+01
3.985693007405013304e+03 3.162277660168379256e+01
4.278811376405275951e+03 5.623413251903490817e+01
4.605111685539345672e+03 1.000000000000000000e+02
4.967991367922413701e+03 1.778279410038922776e+02
5.387171875073061528e+03 3.162277660168379612e+02
