# Temperature (K), Pressure (bars)
1.110045276882214011e+03 3.162277660168379394e-04
1.155123428636726658e+03 5.623413251903490971e-04
1.200201583016036011e+03 1.000000000000000021e-03
1.246812860799155260e+03 1.778279410038922752e-03
1.297221086574683568e+03 3.162277660168379394e-03
1.352118968606744829e+03 5.623413251903490971e-03
1.412939497998172783e+03 1.000000000000000021e-02
1.476570664648216734e+03 1.778279410038922925e-02
1.547691909437999129e+03 3.162277660168379134e-02
1.636548951933292301e+03 5.623413251903491145e-02
1.730743399838172991e+03 1.000000000000000056e-01
1.821901499145612433e+03 1.778279410038922925e-01
1.929456774969714161e+03 3.162277660168379412e-01
2.057973917197291485e+03 5.623413251903490728e-01
2.232256961973422221e+03 1.000000000000000000e+00
2.483250940733138577e+03 1.778279410038922759e+00
2.751598962051880790e+03 3.162277660168379523e+00
2.998169542112101226e+03 5.623413251903491172e+00
3.243313709928269418e+03 1.000000000000000000e+01
3.494861628523886793e+03 1.778279410038922848e+01
3.760722797195640851e+03 3.162277660168379256e+01
4.047144005158078016e+03 5.623413251903490817e+01
4.360992739145387532e+03 1.000000000000000000e+02
4.705361923209893575e+03 1.778279410038922776e+02
5.098456516270653083e+03 3.162277660168379612e+02
