# Temperature (K), Pressure (bars)
1.934143659514575120e+03 9.999999999999999547e-07
1.997137540081112093e+03 1.778279410038922901e-06
2.060131420647905543e+03 3.162277660168379191e-06
2.112360579853691888e+03 5.623413251903491208e-06
2.154609338465619658e+03 1.000000000000000082e-05
2.193930145569873275e+03 1.778279410038922901e-05
2.236160685235604888e+03 3.162277660168379530e-05
2.284041027340480468e+03 5.623413251903490700e-05
2.338286350380773456e+03 1.000000000000000048e-04
2.399239785958127413e+03 1.778279410038922698e-04
2.467768361763471148e+03 3.162277660168379394e-04
2.545523369951622954e+03 5.623413251903490971e-04
2.634439503618410527e+03 1.000000000000000021e-03
2.735875498611947478e+03 1.778279410038922752e-03
2.850580829785938022e+03 3.162277660168379394e-03
2.978377628477471717e+03 5.623413251903490971e-03
3.119844192919421403e+03 1.000000000000000021e-02
3.277682358913229109e+03 1.778279410038922925e-02
3.463112110180480613e+03 3.162277660168379134e-02
3.720832526250572300e+03 5.623413251903491145e-02
4.105720266514229479e+03 1.000000000000000056e-01
4.790772807915589510e+03 1.778279410038922925e-01
5.792566375756871821e+03 3.162277660168379412e-01
7.183919415483208468e+03 5.623413251903490728e-01
8.679414901411138999e+03 1.000000000000000000e+00
1.005143060691205392e+04 1.778279410038922759e+00
1.153215193320762046e+04 3.162277660168379523e+00
1.341298959971286968e+04 5.623413251903491172e+00
1.580097785556701274e+04 1.000000000000000000e+01
1.882666390954004964e+04 1.778279410038922848e+01
2.264600380147167016e+04 3.162277660168379256e+01
2.743452850875232980e+04 5.623413251903490817e+01
3.337433121739153285e+04 1.000000000000000000e+02
4.061865312573072879e+04 1.778279410038922776e+02
4.925882846734111808e+04 3.162277660168379612e+02
