# Temperature (K), Pressure (bars)
1.869423519580715720e+03 9.999999999999999547e-07
1.928746856377441873e+03 1.778279410038922901e-06
1.988070193174459291e+03 3.162277660168379191e-06
2.046688619870129969e+03 5.623413251903491208e-06
2.100077649065218793e+03 1.000000000000000082e-05
2.145396876694091134e+03 1.778279410038922901e-05
2.183616167997562115e+03 3.162277660168379530e-05
2.216884337157278424e+03 5.623413251903490700e-05
2.247848121264527890e+03 1.000000000000000048e-04
2.279110480280104639e+03 1.778279410038922698e-04
2.312948066468884008e+03 3.162277660168379394e-04
2.351318025432791728e+03 5.623413251903490971e-04
2.395961810765300015e+03 1.000000000000000021e-03
2.448669684244850032e+03 1.778279410038922752e-03
2.511544075341799726e+03 3.162277660168379394e-03
2.585881008641671087e+03 5.623413251903490971e-03
2.672740250981080408e+03 1.000000000000000021e-02
2.775605750371264548e+03 1.778279410038922925e-02
2.896852712588669419e+03 3.162277660168379134e-02
3.036696134112017717e+03 5.623413251903491145e-02
3.197513458055927003e+03 1.000000000000000056e-01
3.382429309796573307e+03 1.778279410038922925e-01
3.592961432552176120e+03 3.162277660168379412e-01
3.831454825445100141e+03 5.623413251903490728e-01
4.106823196338178604e+03 1.000000000000000000e+00
4.405265966012554600e+03 1.778279410038922759e+00
4.777413534520334906e+03 3.162277660168379523e+00
5.269315317658073582e+03 5.623413251903491172e+00
5.964183830593403400e+03 1.000000000000000000e+01
6.990927005833330441e+03 1.778279410038922848e+01
8.506273860363860877e+03 3.162277660168379256e+01
1.039266789046969825e+04 5.623413251903490817e+01
1.264071475591019225e+04 1.000000000000000000e+02
1.538427570639768419e+04 1.778279410038922776e+02
1.865392845803383898e+04 3.162277660168379612e+02
