# Temperature (K), Pressure (bars)
1.719452745169729269e+03 9.999999999999999547e-07
1.745833837750334169e+03 1.778279410038922901e-06
1.772214930331933829e+03 3.162277660168379191e-06
1.807869858789261798e+03 5.623413251903491208e-06
1.848938973824208233e+03 1.000000000000000082e-05
1.890650171657174496e+03 1.778279410038922901e-05
1.931959439127768292e+03 3.162277660168379530e-05
1.971826809120152802e+03 5.623413251903490700e-05
2.011709737501523705e+03 1.000000000000000048e-04
2.053452527009162623e+03 1.778279410038922698e-04
2.097984715308751220e+03 3.162277660168379394e-04
2.146592300538197378e+03 5.623413251903490971e-04
2.200632266209282534e+03 1.000000000000000021e-03
2.261739543729220713e+03 1.778279410038922752e-03
2.333179652558750604e+03 3.162277660168379394e-03
2.421318553020879335e+03 5.623413251903490971e-03
2.527792109522781629e+03 1.000000000000000021e-02
2.646870754770492567e+03 1.778279410038922925e-02
2.776010524975573389e+03 3.162277660168379134e-02
2.917075955162921673e+03 5.623413251903491145e-02
3.072301091016975988e+03 1.000000000000000056e-01
3.244044014356627486e+03 1.778279410038922925e-01
3.433791435753226324e+03 3.162277660168379412e-01
3.642327561987508489e+03 5.623413251903490728e-01
3.872261155523811794e+03 1.000000000000000000e+00
4.130089140221512935e+03 1.778279410038922759e+00
4.426854047649590029e+03 3.162277660168379523e+00
4.770218617871287279e+03 5.623413251903491172e+00
5.197509563007932229e+03 1.000000000000000000e+01
5.758008776489841694e+03 1.778279410038922848e+01
6.548418478069022967e+03 3.162277660168379256e+01
7.729467095280233480e+03 5.623413251903490817e+01
9.388457817436343248e+03 1.000000000000000000e+02
1.143535974419743616e+04 1.778279410038922776e+02
1.387286730698325300e+04 3.162277660168379612e+02
