# Temperature (K), Pressure (bars)
9.144855614127026229e+02 3.162277660168379394e-04
9.590007745358212787e+02 5.623413251903490971e-04
1.003515989270828868e+03 1.000000000000000021e-03
1.049189652982063080e+03 1.778279410038922752e-03
1.096361734001522791e+03 3.162277660168379394e-03
1.144521949900514528e+03 5.623413251903490971e-03
1.194616846966153616e+03 1.000000000000000021e-02
1.247489530368187388e+03 1.778279410038922925e-02
1.308756925507863116e+03 3.162277660168379134e-02
1.380681003405627052e+03 5.623413251903491145e-02
1.494043118238162606e+03 1.000000000000000056e-01
1.692188356240747908e+03 1.778279410038922925e-01
1.945611410952466031e+03 3.162277660168379412e-01
2.207695062779602267e+03 5.623413251903490728e-01
2.462811866605576142e+03 1.000000000000000000e+00
2.704703075891401568e+03 1.778279410038922759e+00
2.937508120112308006e+03 3.162277660168379523e+00
3.167846856246405878e+03 5.623413251903491172e+00
3.402694655381904340e+03 1.000000000000000000e+01
3.648748639651439589e+03 1.778279410038922848e+01
3.914306417935560603e+03 3.162277660168379256e+01
4.204363282021570740e+03 5.623413251903490817e+01
4.525711487138426492e+03 1.000000000000000000e+02
4.881495624920818045e+03 1.778279410038922776e+02
5.291178893922628049e+03 3.162277660168379612e+02
