# Temperature (K), Pressure (bars)
2.213787930717334802e+03 9.999999999999999547e-07
2.227497103061415146e+03 1.778279410038922901e-06
2.241206275405918404e+03 3.162277660168379191e-06
2.255705099977080863e+03 5.623413251903491208e-06
2.269631653027896846e+03 1.000000000000000082e-05
2.281949861103249077e+03 1.778279410038922901e-05
2.293621533761399405e+03 3.162277660168379530e-05
2.307141106933535866e+03 5.623413251903490700e-05
2.324211679337200621e+03 1.000000000000000048e-04
2.344497527544398963e+03 1.778279410038922698e-04
2.366801092800559672e+03 3.162277660168379394e-04
2.390129521417720753e+03 5.623413251903490971e-04
2.414629529099720003e+03 1.000000000000000021e-03
2.441446435967651269e+03 1.778279410038922752e-03
2.472437768670410151e+03 3.162277660168379394e-03
2.508811298103298213e+03 5.623413251903490971e-03
2.553783576925728084e+03 1.000000000000000021e-02
2.608137922037126373e+03 1.778279410038922925e-02
2.680964835731859694e+03 3.162277660168379134e-02
2.788331204865715335e+03 5.623413251903491145e-02
2.921158379204518496e+03 1.000000000000000056e-01
3.066559041291879112e+03 1.778279410038922925e-01
3.226535969287785520e+03 3.162277660168379412e-01
3.403723956930125496e+03 5.623413251903490728e-01
3.600467963226771644e+03 1.000000000000000000e+00
3.818544588870950065e+03 1.778279410038922759e+00
4.060569986155316201e+03 3.162277660168379523e+00
4.331956461912615850e+03 5.623413251903491172e+00
4.641686853256088398e+03 1.000000000000000000e+01
5.001580269423578102e+03 1.778279410038922848e+01
5.434554723037086660e+03 3.162277660168379256e+01
5.971776505366646234e+03 5.623413251903490817e+01
6.666133426767652963e+03 1.000000000000000000e+02
7.609130483561048095e+03 1.778279410038922776e+02
8.932952708831022392e+03 3.162277660168379612e+02
