# Temperature (K), Pressure (bars)
9.327709427929149797e+02 1.000000000000000021e-03
9.803128969940900106e+02 1.778279410038922752e-03
1.027854852676631936e+03 3.162277660168379394e-03
1.074095220548422958e+03 5.623413251903490971e-03
1.120608541193053725e+03 1.000000000000000021e-02
1.168270130735728344e+03 1.778279410038922925e-02
1.217826747555224756e+03 3.162277660168379134e-02
1.270979519849020107e+03 5.623413251903491145e-02
1.330633259495945140e+03 1.000000000000000056e-01
1.406227660044046843e+03 1.778279410038922925e-01
1.510815990570248914e+03 3.162277660168379412e-01
1.654647686985847486e+03 5.623413251903490728e-01
1.826910830880929780e+03 1.000000000000000000e+00
2.039190709968280316e+03 1.778279410038922759e+00
2.315819676831516063e+03 3.162277660168379523e+00
2.609645848349433436e+03 5.623413251903491172e+00
2.886138486562517301e+03 1.000000000000000000e+01
3.158446107731922893e+03 1.778279410038922848e+01
3.435097909294943292e+03 3.162277660168379256e+01
3.723046595560828791e+03 5.623413251903490817e+01
4.029953573026297818e+03 1.000000000000000000e+02
4.359897642195736807e+03 1.778279410038922776e+02
4.728491589329707494e+03 3.162277660168379612e+02
