# Temperature (K), Pressure (bars)
7.686986794500053293e+02 3.162277660168379394e-04
8.078803548170076283e+02 5.623413251903490971e-04
8.470620310850805481e+02 1.000000000000000021e-03
8.859867677652509883e+02 1.778279410038922752e-03
9.253055752080715592e+02 3.162277660168379394e-03
9.652829001883940236e+02 5.623413251903490971e-03
1.006350842238174550e+03 1.000000000000000021e-02
1.050050119313948471e+03 1.778279410038922925e-02
1.099380408199964222e+03 3.162277660168379134e-02
1.159188958619882669e+03 5.623413251903491145e-02
1.235352570058719948e+03 1.000000000000000056e-01
1.338519023949481834e+03 1.778279410038922925e-01
1.490772364011613718e+03 3.162277660168379412e-01
1.707822689502875164e+03 5.623413251903490728e-01
1.971991369917621114e+03 1.000000000000000000e+00
2.250010522322345423e+03 1.778279410038922759e+00
2.524510763246996703e+03 3.162277660168379523e+00
2.791049951050720210e+03 5.623413251903491172e+00
3.050978211896811899e+03 1.000000000000000000e+01
3.310919855489759811e+03 1.778279410038922848e+01
3.580595408729840983e+03 3.162277660168379256e+01
3.866069874162476481e+03 5.623413251903490817e+01
4.174448064565557615e+03 1.000000000000000000e+02
4.509227542724010164e+03 1.778279410038922776e+02
4.887031049239285494e+03 3.162277660168379612e+02
