# Temperature (K), Pressure (bars)
1.073592143051385847e+03 5.623413251903490700e-05
1.115998061251796116e+03 1.000000000000000048e-04
1.158403981488306499e+03 1.778279410038922698e-04
1.203021786377092212e+03 3.162277660168379394e-04
1.251199359340316050e+03 5.623413251903490971e-04
1.304924062542061392e+03 1.000000000000000021e-03
1.366978924063445220e+03 1.778279410038922752e-03
1.433827319948584091e+03 3.162277660168379394e-03
1.506004982893285387e+03 5.623413251903490971e-03
1.591499431289205859e+03 1.000000000000000021e-02
1.680289393278054149e+03 1.778279410038922925e-02
1.763538300630223830e+03 3.162277660168379134e-02
1.856468195922273480e+03 5.623413251903491145e-02
1.966013087066211256e+03 1.000000000000000056e-01
2.111514110674600943e+03 1.778279410038922925e-01
2.315867282932779290e+03 3.162277660168379412e-01
2.540494049730024017e+03 5.623413251903490728e-01
2.753523119878607758e+03 1.000000000000000000e+00
2.963442586592133011e+03 1.778279410038922759e+00
3.175739122651092657e+03 3.162277660168379523e+00
3.394716014874687971e+03 5.623413251903491172e+00
3.625104320774544249e+03 1.000000000000000000e+01
3.872359289124452516e+03 1.778279410038922848e+01
4.144158802068068326e+03 3.162277660168379256e+01
4.445940484373443724e+03 5.623413251903490817e+01
4.785253689845590998e+03 1.000000000000000000e+02
5.165456345629819225e+03 1.778279410038922776e+02
5.610284169718444900e+03 3.162277660168379612e+02
