# Temperature (K), Pressure (bars)
1.095825749802627342e+03 9.999999999999999547e-07
1.143646706209078047e+03 1.778279410038922901e-06
1.191467662615528297e+03 3.162277660168379191e-06
1.241365956923668136e+03 5.623413251903491208e-06
1.293564934294623072e+03 1.000000000000000082e-05
1.348063725134796414e+03 1.778279410038922901e-05
1.406634140412458237e+03 3.162277660168379530e-05
1.470819711380168428e+03 5.623413251903490700e-05
1.543444508248773445e+03 1.000000000000000048e-04
1.629480475462105460e+03 1.778279410038922698e-04
1.730117468486902681e+03 3.162277660168379394e-04
1.841960354430627376e+03 5.623413251903490971e-04
1.971353964226323797e+03 1.000000000000000021e-03
2.125760506566626191e+03 1.778279410038922752e-03
2.291660275838422876e+03 3.162277660168379394e-03
2.456018109494077635e+03 5.623413251903490971e-03
2.619758662300594551e+03 1.000000000000000021e-02
2.786159381045365990e+03 1.778279410038922925e-02
2.958957621071893300e+03 3.162277660168379134e-02
3.142295749559738852e+03 5.623413251903491145e-02
3.344010462467192156e+03 1.000000000000000056e-01
3.535915631158208271e+03 1.778279410038922925e-01
3.752916206836065612e+03 3.162277660168379412e-01
4.003927753585949176e+03 5.623413251903490728e-01
4.295809129627790753e+03 1.000000000000000000e+00
4.669083107800908692e+03 1.778279410038922759e+00
5.189431675171883398e+03 3.162277660168379523e+00
5.984336192539336480e+03 5.623413251903491172e+00
7.186579211805123123e+03 1.000000000000000000e+01
8.837006290721821642e+03 1.778279410038922848e+01
1.000000000000000000e+04 3.162277660168379256e+01
1.000000000000000000e+04 5.623413251903490817e+01
1.000000000000000000e+04 1.000000000000000000e+02
1.000000000000000000e+04 1.778279410038922776e+02
1.000000000000000000e+04 3.162277660168379612e+02
