# Temperature (K), Pressure (bars)
8.364527075171301931e+02 5.623413251903490971e-04
8.815141109777921429e+02 1.000000000000000021e-03
9.265755156207992513e+02 1.778279410038922752e-03
9.699884585359078528e+02 3.162277660168379394e-03
1.013826544376986476e+03 5.623413251903490971e-03
1.058795218809040080e+03 1.000000000000000021e-02
1.104924326978683666e+03 1.778279410038922925e-02
1.154134651437808543e+03 3.162277660168379134e-02
1.209682687656163353e+03 5.623413251903491145e-02
1.277145561802503835e+03 1.000000000000000056e-01
1.362273687174488941e+03 1.778279410038922925e-01
1.478980172569590877e+03 3.162277660168379412e-01
1.660467499073518638e+03 5.623413251903490728e-01
1.911192041589660221e+03 1.000000000000000000e+00
2.189112181021944252e+03 1.778279410038922759e+00
2.466529716427660333e+03 3.162277660168379523e+00
2.738209234162065968e+03 5.623413251903491172e+00
3.003211259245594647e+03 1.000000000000000000e+01
3.266874921673825611e+03 1.778279410038922848e+01
3.538293066289189937e+03 3.162277660168379256e+01
3.824239946883298671e+03 5.623413251903490817e+01
4.131922733414346112e+03 1.000000000000000000e+02
4.465251824867141295e+03 1.778279410038922776e+02
4.840001660220215854e+03 3.162277660168379612e+02
