# Temperature (K), Pressure (bars)
1.010359378705818244e+03 3.162277660168379394e-03
1.056459794375140973e+03 5.623413251903490971e-03
1.102560210367778836e+03 1.000000000000000021e-02
1.144493860919886629e+03 1.778279410038922925e-02
1.184702551313760978e+03 3.162277660168379134e-02
1.226749450969479767e+03 5.623413251903491145e-02
1.271101432381788072e+03 1.000000000000000056e-01
1.319176486882902736e+03 1.778279410038922925e-01
1.378988414912648977e+03 3.162277660168379412e-01
1.457288494339819408e+03 5.623413251903490728e-01
1.560490873672932594e+03 1.000000000000000000e+00
1.696044696152382812e+03 1.778279410038922759e+00
1.874379929636897486e+03 3.162277660168379523e+00
2.119613923160513423e+03 5.623413251903491172e+00
2.420678037106542433e+03 1.000000000000000000e+01
2.729685135126638215e+03 1.778279410038922848e+01
3.033181059621052555e+03 3.162277660168379256e+01
3.338087202338881980e+03 5.623413251903490817e+01
3.651176830676531608e+03 1.000000000000000000e+02
3.977126758687109032e+03 1.778279410038922776e+02
4.331130912360964430e+03 3.162277660168379612e+02
