# Temperature (K), Pressure (bars)
2.135971032861200456e+03 9.999999999999999547e-07
2.143164718574968902e+03 1.778279410038922901e-06
2.150358404297256129e+03 3.162277660168379191e-06
2.158783873395478622e+03 5.623413251903491208e-06
2.164708677047136916e+03 1.000000000000000082e-05
2.167518337513042752e+03 1.778279410038922901e-05
2.171284061525372636e+03 3.162277660168379530e-05
2.179679904768916458e+03 5.623413251903490700e-05
2.193870265139347339e+03 1.000000000000000048e-04
2.212966298207287764e+03 1.778279410038922698e-04
2.235480474304605195e+03 3.162277660168379394e-04
2.259894952767771429e+03 5.623413251903490971e-04
2.285209530143332813e+03 1.000000000000000021e-03
2.311657365473044592e+03 1.778279410038922752e-03
2.339592879028293737e+03 3.162277660168379394e-03
2.370493605554986971e+03 5.623413251903490971e-03
2.405048225081293367e+03 1.000000000000000021e-02
2.447744708517065192e+03 1.778279410038922925e-02
2.495881022834459145e+03 3.162277660168379134e-02
2.566993302342352763e+03 5.623413251903491145e-02
2.691653847225948084e+03 1.000000000000000056e-01
2.843740130054262409e+03 1.778279410038922925e-01
2.999139996265445006e+03 3.162277660168379412e-01
3.166732666380336468e+03 5.623413251903490728e-01
3.349448438074137357e+03 1.000000000000000000e+00
3.548633641327613077e+03 1.778279410038922759e+00
3.765320784002658911e+03 3.162277660168379523e+00
4.002204459363434580e+03 5.623413251903491172e+00
4.264366333084481994e+03 1.000000000000000000e+01
4.558979676660843324e+03 1.778279410038922848e+01
4.895822077417864421e+03 3.162277660168379256e+01
5.290960970211516724e+03 5.623413251903490817e+01
5.761202844674842709e+03 1.000000000000000000e+02
6.334147794461119702e+03 1.778279410038922776e+02
7.052057067690481745e+03 3.162277660168379612e+02
