# Temperature (K), Pressure (bars)
1.843334157532725840e+03 9.999999999999999547e-07
1.851369542441686463e+03 1.778279410038922901e-06
1.859404927350750086e+03 3.162277660168379191e-06
1.878582374170343883e+03 5.623413251903491208e-06
1.910491781456791159e+03 1.000000000000000082e-05
1.950832471849263356e+03 1.778279410038922901e-05
1.997126738955206520e+03 3.162277660168379530e-05
2.047328086771856533e+03 5.623413251903490700e-05
2.095814008045766968e+03 1.000000000000000048e-04
2.138522117774362414e+03 1.778279410038922698e-04
2.175572797283236469e+03 3.162277660168379394e-04
2.208328234555919153e+03 5.623413251903490971e-04
2.238834464735454276e+03 1.000000000000000021e-03
2.269511225236855807e+03 1.778279410038922752e-03
2.302360646092783099e+03 3.162277660168379394e-03
2.339790007395073189e+03 5.623413251903490971e-03
2.383554022822811021e+03 1.000000000000000021e-02
2.437713324019685388e+03 1.778279410038922925e-02
2.502737231680197510e+03 3.162277660168379134e-02
2.590413071280732765e+03 5.623413251903491145e-02
2.717586328986469198e+03 1.000000000000000056e-01
2.867030706306753927e+03 1.778279410038922925e-01
3.024101085207021242e+03 3.162277660168379412e-01
3.194255495080325090e+03 5.623413251903490728e-01
3.379429118411337640e+03 1.000000000000000000e+00
3.580685190335550487e+03 1.778279410038922759e+00
3.799437971807747999e+03 3.162277660168379523e+00
4.038952814834060973e+03 5.623413251903491172e+00
4.304753793885860432e+03 1.000000000000000000e+01
4.604426880436752072e+03 1.778279410038922848e+01
4.948178473438694709e+03 3.162277660168379256e+01
5.352742781092666519e+03 5.623413251903490817e+01
5.834974286573869904e+03 1.000000000000000000e+02
6.422511509978997310e+03 1.778279410038922776e+02
7.157010702334639973e+03 3.162277660168379612e+02
