# Temperature (K), Pressure (bars)
1.908585866651641936e+03 3.162277660168379191e-06
1.913584744571842521e+03 5.623413251903491208e-06
1.919927139187498597e+03 1.000000000000000082e-05
1.929177334452143214e+03 1.778279410038922901e-05
1.942489930540102250e+03 3.162277660168379530e-05
1.960349242353786167e+03 5.623413251903490700e-05
1.984152636024605954e+03 1.000000000000000048e-04
2.015644490655149184e+03 1.778279410038922698e-04
2.054079048744977626e+03 3.162277660168379394e-04
2.097770205287911722e+03 5.623413251903490971e-04
2.146554112058986448e+03 1.000000000000000021e-03
2.199613441597568453e+03 1.778279410038922752e-03
2.258658579435091269e+03 3.162277660168379394e-03
2.323376667092912612e+03 5.623413251903490971e-03
2.402038796773280865e+03 1.000000000000000021e-02
2.509116264157448313e+03 1.778279410038922925e-02
2.633709736793009142e+03 3.162277660168379134e-02
2.764356136880447593e+03 5.623413251903491145e-02
2.904332439448092373e+03 1.000000000000000056e-01
3.055348697637041369e+03 1.778279410038922925e-01
3.219514829632414148e+03 3.162277660168379412e-01
3.399281638650832974e+03 5.623413251903490728e-01
3.596927892796124070e+03 1.000000000000000000e+00
3.814484570491821614e+03 1.778279410038922759e+00
4.055087477057802971e+03 3.162277660168379523e+00
4.324608439761474983e+03 5.623413251903491172e+00
4.632202001431115605e+03 1.000000000000000000e+01
4.989894717640536328e+03 1.778279410038922848e+01
5.419806634076360751e+03 3.162277660168379256e+01
5.952827786953423129e+03 5.623413251903490817e+01
6.640537020473992925e+03 1.000000000000000000e+02
7.571887834070839745e+03 1.778279410038922776e+02
8.877414447080582249e+03 3.162277660168379612e+02
