# Temperature (K), Pressure (bars)
9.781167034681639052e+02 5.623413251903490700e-05
1.025522288584274975e+03 1.000000000000000048e-04
1.072927875517987331e+03 1.778279410038922698e-04
1.121088394814599042e+03 3.162277660168379394e-04
1.170192207673730991e+03 5.623413251903490971e-04
1.221877457926235138e+03 1.000000000000000021e-03
1.276217275748107568e+03 1.778279410038922752e-03
1.333393766627633795e+03 3.162277660168379394e-03
1.395161787620235600e+03 5.623413251903490971e-03
1.465617910398852246e+03 1.000000000000000021e-02
1.553055307662408723e+03 1.778279410038922925e-02
1.666282186660596381e+03 3.162277660168379134e-02
1.816251246151594160e+03 5.623413251903491145e-02
2.015651227306286273e+03 1.000000000000000056e-01
2.247494066695769561e+03 1.778279410038922925e-01
2.472112610236791625e+03 3.162277660168379412e-01
2.679733889907825869e+03 5.623413251903490728e-01
2.881418660532031026e+03 1.000000000000000000e+00
3.083303818229999251e+03 1.778279410038922759e+00
3.289983763096603980e+03 3.162277660168379523e+00
3.505971570951749072e+03 5.623413251903491172e+00
3.736200245141376399e+03 1.000000000000000000e+01
3.986010671020083919e+03 1.778279410038922848e+01
4.263383135929159835e+03 3.162277660168379256e+01
4.573699227327208064e+03 5.623413251903490817e+01
4.925100475452753926e+03 1.000000000000000000e+02
5.321783263641650592e+03 1.778279410038922776e+02
5.789073361674812986e+03 3.162277660168379612e+02
