# Temperature (K), Pressure (bars)
2.104187665692092196e+03 9.999999999999999547e-07
2.114512744524883601e+03 1.778279410038922901e-06
2.124837823357674552e+03 3.162277660168379191e-06
2.134751557391790357e+03 5.623413251903491208e-06
2.141909448704616352e+03 1.000000000000000082e-05
2.147768282066090251e+03 1.778279410038922901e-05
2.156621398166294966e+03 3.162277660168379530e-05
2.170545212415705009e+03 5.623413251903490700e-05
2.189166375092834187e+03 1.000000000000000048e-04
2.211203445663566072e+03 1.778279410038922698e-04
2.235243283795706702e+03 3.162277660168379394e-04
2.260149675780428879e+03 5.623413251903490971e-04
2.286095889031805200e+03 1.000000000000000021e-03
2.314407895990043926e+03 1.778279410038922752e-03
2.345981426060346621e+03 3.162277660168379394e-03
2.382213298679673244e+03 5.623413251903490971e-03
2.425022481332051939e+03 1.000000000000000021e-02
2.477501038052265812e+03 1.778279410038922925e-02
2.560908664846762804e+03 3.162277660168379134e-02
2.686612892756235851e+03 5.623413251903491145e-02
2.828790587439876617e+03 1.000000000000000056e-01
2.975680046956214483e+03 1.778279410038922925e-01
3.135653182164840473e+03 3.162277660168379412e-01
3.311620519623276323e+03 5.623413251903490728e-01
3.504823529415503799e+03 1.000000000000000000e+00
3.715693958628585278e+03 1.778279410038922759e+00
3.946241149957882044e+03 3.162277660168379523e+00
4.201341902706892142e+03 5.623413251903491172e+00
4.488477602299592036e+03 1.000000000000000000e+01
4.817986273496039757e+03 1.778279410038922848e+01
5.205170913830143036e+03 3.162277660168379256e+01
5.671626882796891550e+03 5.623413251903490817e+01
6.250470977837747341e+03 1.000000000000000000e+02
6.996011197947144865e+03 1.778279410038922776e+02
7.995717761316447650e+03 3.162277660168379612e+02
