# Temperature (K), Pressure (bars)
7.907865312200297012e+02 3.162277660168379394e-04
8.377550907738282149e+02 5.623413251903490971e-04
8.847236514290939340e+02 1.000000000000000021e-03
9.305585057746802704e+02 1.778279410038922752e-03
9.762946910067096269e+02 3.162277660168379394e-03
1.024406813813745430e+03 5.623413251903490971e-03
1.078217231435447275e+03 1.000000000000000021e-02
1.142069856681515148e+03 1.778279410038922925e-02
1.223049913933965399e+03 3.162277660168379134e-02
1.328109584608217119e+03 5.623413251903491145e-02
1.485501411364164142e+03 1.000000000000000056e-01
1.714473050558395698e+03 1.778279410038922925e-01
1.977245276077245762e+03 3.162277660168379412e-01
2.240429295882017868e+03 5.623413251903490728e-01
2.494278628856509840e+03 1.000000000000000000e+00
2.732922920609458743e+03 1.778279410038922759e+00
2.961669764924693936e+03 3.162277660168379523e+00
3.188522226940940527e+03 5.623413251903491172e+00
3.421011928671714941e+03 1.000000000000000000e+01
3.665752081801568238e+03 1.778279410038922848e+01
3.931128801363070579e+03 3.162277660168379256e+01
4.221473038749170883e+03 5.623413251903490817e+01
4.543485898282582639e+03 1.000000000000000000e+02
4.900170108744157915e+03 1.778279410038922776e+02
5.311489372077123335e+03 3.162277660168379612e+02
