# Temperature (K), Pressure (bars)
7.310147607603605593e+02 3.162277660168379394e-04
7.686862498019795567e+02 5.623413251903490971e-04
8.063577400128378940e+02 1.000000000000000021e-03
8.431649306777186439e+02 1.778279410038922752e-03
8.802252330327972913e+02 3.162277660168379394e-03
9.183222272336223568e+02 5.623413251903490971e-03
9.575068014740804756e+02 1.000000000000000021e-02
9.993703831089227378e+02 1.778279410038922925e-02
1.047276793884547715e+03 3.162277660168379134e-02
1.105724805214535763e+03 5.623413251903491145e-02
1.181158290917315981e+03 1.000000000000000056e-01
1.281063493627403432e+03 1.778279410038922925e-01
1.419189977622055949e+03 3.162277660168379412e-01
1.618976990537244092e+03 5.623413251903490728e-01
1.878417798151798479e+03 1.000000000000000000e+00
2.161116274934239300e+03 1.778279410038922759e+00
2.442147351840565079e+03 3.162277660168379523e+00
2.716038820536236926e+03 5.623413251903491172e+00
2.982650398848288660e+03 1.000000000000000000e+01
3.247294185906856001e+03 1.778279410038922848e+01
3.519609381237986327e+03 3.162277660168379256e+01
3.805904005277337092e+03 5.623413251903490817e+01
4.113417667427856941e+03 1.000000000000000000e+02
4.446108540252671446e+03 1.778279410038922776e+02
4.819693539865063940e+03 3.162277660168379612e+02
