# Temperature (K), Pressure (bars)
1.050325716807351228e+03 5.623413251903490971e-04
1.088285333381564669e+03 1.000000000000000021e-03
1.126244951341448996e+03 1.778279410038922752e-03
1.165492740325169507e+03 3.162277660168379394e-03
1.203632354606600984e+03 5.623413251903490971e-03
1.237920264619289810e+03 1.000000000000000021e-02
1.268199884176849991e+03 1.778279410038922925e-02
1.297715577413885285e+03 3.162277660168379134e-02
1.329223883189382832e+03 5.623413251903491145e-02
1.366416982026011965e+03 1.000000000000000056e-01
1.417668588727035285e+03 1.778279410038922925e-01
1.482966624303865501e+03 3.162277660168379412e-01
1.561554813081609609e+03 5.623413251903490728e-01
1.660869485185683516e+03 1.000000000000000000e+00
1.782446047724320351e+03 1.778279410038922759e+00
1.929416207956224980e+03 3.162277660168379523e+00
2.142639739097627626e+03 5.623413251903491172e+00
2.439102220583520193e+03 1.000000000000000000e+01
2.754664221688191901e+03 1.778279410038922848e+01
3.057467156992757282e+03 3.162277660168379256e+01
3.361394075916418387e+03 5.623413251903490817e+01
3.674057900693474949e+03 1.000000000000000000e+02
4.000440820210272705e+03 1.778279410038922776e+02
4.355451431162090557e+03 3.162277660168379612e+02
