# Temperature (K), Pressure (bars)
1.533757255469778556e+03 9.999999999999999547e-07
1.547991367295718646e+03 1.778279410038922901e-06
1.562225479122056186e+03 3.162277660168379191e-06
1.582160250830539553e+03 5.623413251903491208e-06
1.610222211445508037e+03 1.000000000000000082e-05
1.644559799889327905e+03 1.778279410038922901e-05
1.685189574117864140e+03 3.162277660168379530e-05
1.732575173427625941e+03 5.623413251903490700e-05
1.784345070888567079e+03 1.000000000000000048e-04
1.840619589109522167e+03 1.778279410038922698e-04
1.901379891471031669e+03 3.162277660168379394e-04
1.964874273881057889e+03 5.623413251903490971e-04
2.032569137391920549e+03 1.000000000000000021e-03
2.104084833574047479e+03 1.778279410038922752e-03
2.185117102815491307e+03 3.162277660168379394e-03
2.288290578893022030e+03 5.623413251903490971e-03
2.409082603418716644e+03 1.000000000000000021e-02
2.537080506878212873e+03 1.778279410038922925e-02
2.671664574834563609e+03 3.162277660168379134e-02
2.814193132178906126e+03 5.623413251903491145e-02
2.966229804063165830e+03 1.000000000000000056e-01
3.129665792579551180e+03 1.778279410038922925e-01
3.306611865079681593e+03 3.162277660168379412e-01
3.498938765130422325e+03 5.623413251903490728e-01
3.708543592425080078e+03 1.000000000000000000e+00
3.938648760374947869e+03 1.778279410038922759e+00
4.195304152870711732e+03 3.162277660168379523e+00
4.487585307600578744e+03 5.623413251903491172e+00
4.825504615220851520e+03 1.000000000000000000e+01
5.233227108409872017e+03 1.778279410038922848e+01
5.742167550256781396e+03 3.162277660168379256e+01
6.403203573480896011e+03 5.623413251903490817e+01
7.300015996935469957e+03 1.000000000000000000e+02
8.577962427791053415e+03 1.778279410038922776e+02
1.032301659681494129e+04 3.162277660168379612e+02
