# Temperature (K), Pressure (bars)
1.076084654091950142e+03 9.999999999999999547e-07
1.147567964025587571e+03 1.778279410038922901e-06
1.219051273959408718e+03 3.162277660168379191e-06
1.289566429496589990e+03 5.623413251903491208e-06
1.355834652872511697e+03 1.000000000000000082e-05
1.418459578192928348e+03 1.778279410038922901e-05
1.485174508068608247e+03 3.162277660168379530e-05
1.567630594641997504e+03 5.623413251903490700e-05
1.654111008559488255e+03 1.000000000000000048e-04
1.730905859709177548e+03 1.778279410038922698e-04
1.805441028297919956e+03 3.162277660168379394e-04
1.882879303146052052e+03 5.623413251903490971e-04
1.963872245152195092e+03 1.000000000000000021e-03
2.058130973538488433e+03 1.778279410038922752e-03
2.177408066622261686e+03 3.162277660168379394e-03
2.313935791420794885e+03 5.623413251903490971e-03
2.456099288566812902e+03 1.000000000000000021e-02
2.603460605645635042e+03 1.778279410038922925e-02
2.757483399079689207e+03 3.162277660168379134e-02
2.920045045716980894e+03 5.623413251903491145e-02
3.092939201172140656e+03 1.000000000000000056e-01
3.277137988809698982e+03 1.778279410038922925e-01
3.473470857743388024e+03 3.162277660168379412e-01
3.684858486238993464e+03 5.623413251903490728e-01
3.917352324444613259e+03 1.000000000000000000e+00
4.180070783700082757e+03 1.778279410038922759e+00
4.486183546334428684e+03 3.162277660168379523e+00
4.848644610021431617e+03 5.623413251903491172e+00
5.308180302899689195e+03 1.000000000000000000e+01
5.925263899915580623e+03 1.778279410038922848e+01
6.810611967652102066e+03 3.162277660168379256e+01
8.135004963908017089e+03 5.623413251903490817e+01
9.921535096982450341e+03 1.000000000000000000e+02
1.207918530026299777e+04 1.778279410038922776e+02
1.465087128283912898e+04 3.162277660168379612e+02
