# Temperature (K), Pressure (bars)
1.004616840087053902e+03 3.162277660168379394e-04
1.033625986870549468e+03 5.623413251903490971e-04
1.062635131991062281e+03 1.000000000000000021e-03
1.087110989129313339e+03 1.778279410038922752e-03
1.109235197662142127e+03 3.162277660168379394e-03
1.131976898859594712e+03 5.623413251903490971e-03
1.157134720508838427e+03 1.000000000000000021e-02
1.187080894131978084e+03 1.778279410038922925e-02
1.224462525420908833e+03 3.162277660168379134e-02
1.271126665067295562e+03 5.623413251903491145e-02
1.325572403568681239e+03 1.000000000000000056e-01
1.391300892551932748e+03 1.778279410038922925e-01
1.483013544208071607e+03 3.162277660168379412e-01
1.605363553063676136e+03 5.623413251903490728e-01
1.772411556313948267e+03 1.000000000000000000e+00
2.011252709382335524e+03 1.778279410038922759e+00
2.297965959473013754e+03 3.162277660168379523e+00
2.585911705506804537e+03 5.623413251903491172e+00
2.863670271924545887e+03 1.000000000000000000e+01
3.137008186255639885e+03 1.778279410038922848e+01
3.414729461563545101e+03 3.162277660168379256e+01
3.703257822543586826e+03 5.623413251903490817e+01
4.010243180642114567e+03 1.000000000000000000e+02
4.339801142540507499e+03 1.778279410038922776e+02
4.707549898257389032e+03 3.162277660168379612e+02
