# Temperature (K), Pressure (bars)
1.039821777188508577e+03 5.623413251903490700e-05
1.087949255516712810e+03 1.000000000000000048e-04
1.136076736032898452e+03 1.778279410038922698e-04
1.185103904740439248e+03 3.162277660168379394e-04
1.236539344211850221e+03 5.623413251903490971e-04
1.290078086522206377e+03 1.000000000000000021e-03
1.345809822255291465e+03 1.778279410038922752e-03
1.405160201821450300e+03 3.162277660168379394e-03
1.469744510451923816e+03 5.623413251903490971e-03
1.541633855323883381e+03 1.000000000000000021e-02
1.628184116411168361e+03 1.778279410038922925e-02
1.733606863337384993e+03 3.162277660168379134e-02
1.880571063354927219e+03 5.623413251903491145e-02
2.088944407612248142e+03 1.000000000000000056e-01
2.315905406812740239e+03 1.778279410038922925e-01
2.526260658418057119e+03 3.162277660168379412e-01
2.726474639612021292e+03 5.623413251903490728e-01
2.923485615012732069e+03 1.000000000000000000e+00
3.122754205555688714e+03 1.778279410038922759e+00
3.328452908686437695e+03 3.162277660168379523e+00
3.544583233546115025e+03 5.623413251903491172e+00
3.775706971513836379e+03 1.000000000000000000e+01
4.027072671483058457e+03 1.778279410038922848e+01
4.306562182160477278e+03 3.162277660168379256e+01
4.619927857547869280e+03 5.623413251903490817e+01
4.975563196273428730e+03 1.000000000000000000e+02
5.377583022384423202e+03 1.778279410038922776e+02
5.852990875929727736e+03 3.162277660168379612e+02
