# Temperature (K), Pressure (bars)
9.408305666926514732e+02 5.623413251903490700e-05
9.880959669684255005e+02 1.000000000000000048e-04
1.035361367228680592e+03 1.778279410038922698e-04
1.078431103073770601e+03 3.162277660168379394e-04
1.121408087375350533e+03 5.623413251903490971e-04
1.167042277095150894e+03 1.000000000000000021e-03
1.216871114729160354e+03 1.778279410038922752e-03
1.272222368876882911e+03 3.162277660168379394e-03
1.337653404087175431e+03 5.623413251903490971e-03
1.424338292814203669e+03 1.000000000000000021e-02
1.535290738551786944e+03 1.778279410038922925e-02
1.660455822446955608e+03 3.162277660168379134e-02
1.793395345230164139e+03 5.623413251903491145e-02
1.940178680053799781e+03 1.000000000000000056e-01
2.127624529701377469e+03 1.778279410038922925e-01
2.357306583460351249e+03 3.162277660168379412e-01
2.584835308525430719e+03 5.623413251903490728e-01
2.795467528699829927e+03 1.000000000000000000e+00
3.003062963052118903e+03 1.778279410038922759e+00
3.213223632614367489e+03 3.162277660168379523e+00
3.430644087559729996e+03 5.623413251903491172e+00
3.660440073570199729e+03 1.000000000000000000e+01
3.908089585505455034e+03 1.778279410038922848e+01
4.181471690779744677e+03 3.162277660168379256e+01
4.485821867880040372e+03 5.623413251903490817e+01
4.828797801307829104e+03 1.000000000000000000e+02
5.214256190409858391e+03 1.778279410038922776e+02
5.665761304015580208e+03 3.162277660168379612e+02
