# Temperature (K), Pressure (bars)
1.071693025202748913e+03 9.999999999999999547e-07
1.217072128785169298e+03 1.778279410038922901e-06
1.362451232367971215e+03 3.162277660168379191e-06
1.537586612446869140e+03 5.623413251903491208e-06
1.681355910137296632e+03 1.000000000000000082e-05
1.766515454183006113e+03 1.778279410038922901e-05
1.825862769676847620e+03 3.162277660168379530e-05
1.875771040099945139e+03 5.623413251903490700e-05
1.920066171398091910e+03 1.000000000000000048e-04
1.963914857664331748e+03 1.778279410038922698e-04
2.010447564667654433e+03 3.162277660168379394e-04
2.061761349618685017e+03 5.623413251903490971e-04
2.120032784048771191e+03 1.000000000000000021e-03
2.186790560216077665e+03 1.778279410038922752e-03
2.266496682022622736e+03 3.162277660168379394e-03
2.366226147629478874e+03 5.623413251903490971e-03
2.483086159678460263e+03 1.000000000000000021e-02
2.610952362091884424e+03 1.778279410038922925e-02
2.749872228901519520e+03 3.162277660168379134e-02
2.901854112659015755e+03 5.623413251903491145e-02
3.068688644936451055e+03 1.000000000000000056e-01
3.250535655429334838e+03 1.778279410038922925e-01
3.446538301254370708e+03 3.162277660168379412e-01
3.657698482124528709e+03 5.623413251903490728e-01
3.888653289363375734e+03 1.000000000000000000e+00
4.147681116311985534e+03 1.778279410038922759e+00
4.446844327884108679e+03 3.162277660168379523e+00
4.796361575159786298e+03 5.623413251903491172e+00
5.232398078352487573e+03 1.000000000000000000e+01
5.803038228250496104e+03 1.778279410038922848e+01
6.591398910841401630e+03 3.162277660168379256e+01
7.741096466020137996e+03 5.623413251903490817e+01
9.386683226521674442e+03 1.000000000000000000e+02
1.142711184694502117e+04 1.778279410038922776e+02
1.385574016891927567e+04 3.162277660168379612e+02
