# Temperature (K), Pressure (bars)
1.049905554161475266e+03 5.623413251903491208e-06
1.119564912406027815e+03 1.000000000000000082e-05
1.189224282811881949e+03 1.778279410038922901e-05
1.269493173590974266e+03 3.162277660168379530e-05
1.373710826714014956e+03 5.623413251903490700e-05
1.525527149261670957e+03 1.000000000000000048e-04
1.664831483753682733e+03 1.778279410038922698e-04
1.751759439183080303e+03 3.162277660168379394e-04
1.813015958475964680e+03 5.623413251903490971e-04
1.861571905801467665e+03 1.000000000000000021e-03
1.902654497498721867e+03 1.778279410038922752e-03
1.939935896368567683e+03 3.162277660168379394e-03
1.975810798805368904e+03 5.623413251903490971e-03
2.013083846657781123e+03 1.000000000000000021e-02
2.054310843267867313e+03 1.778279410038922925e-02
2.101848064833319313e+03 3.162277660168379134e-02
2.160525448032725308e+03 5.623413251903491145e-02
2.231034869530301876e+03 1.000000000000000056e-01
2.328757424504433402e+03 1.778279410038922925e-01
2.482167738088179703e+03 3.162277660168379412e-01
2.674442208906625183e+03 5.623413251903490728e-01
2.872573849148609497e+03 1.000000000000000000e+00
3.073388936596040821e+03 1.778279410038922759e+00
3.281416485185772217e+03 3.162277660168379523e+00
3.499450284734657544e+03 5.623413251903491172e+00
3.731376380482019158e+03 1.000000000000000000e+01
3.982348703181957717e+03 1.778279410038922848e+01
4.259980547842144006e+03 3.162277660168379256e+01
4.570411210134930116e+03 5.623413251903490817e+01
4.921835380264094056e+03 1.000000000000000000e+02
5.318484492900724035e+03 1.778279410038922776e+02
5.785677320442536256e+03 3.162277660168379612e+02
