# Temperature (K), Pressure (bars)
1.784046321384832254e+03 9.999999999999999547e-07
1.812854155173321942e+03 1.778279410038922901e-06
1.841661988962119267e+03 3.162277660168379191e-06
1.873238496669863480e+03 5.623413251903491208e-06
1.911174375487527641e+03 1.000000000000000082e-05
1.955745233730541486e+03 1.778279410038922901e-05
2.006389439147054190e+03 3.162277660168379530e-05
2.062349958646014329e+03 5.623413251903490700e-05
2.122145147233273747e+03 1.000000000000000048e-04
2.185507266428706316e+03 1.778279410038922698e-04
2.253305459457286815e+03 3.162277660168379394e-04
2.327768546894205429e+03 5.623413251903490971e-04
2.412494359452229673e+03 1.000000000000000021e-03
2.509487180534158142e+03 1.778279410038922752e-03
2.617709181887813884e+03 3.162277660168379394e-03
2.736272217487528906e+03 5.623413251903490971e-03
2.865971698061087864e+03 1.000000000000000021e-02
3.008797120462260864e+03 1.778279410038922925e-02
3.168732499444896348e+03 3.162277660168379134e-02
3.354092988713256545e+03 5.623413251903491145e-02
3.591939673319143367e+03 1.000000000000000056e-01
3.828272973773850026e+03 1.778279410038922925e-01
4.130901728943335002e+03 3.162277660168379412e-01
4.563012425552756213e+03 5.623413251903490728e-01
5.274924304501848383e+03 1.000000000000000000e+00
6.399918801295695630e+03 1.778279410038922759e+00
7.924867840088569210e+03 3.162277660168379523e+00
9.578150485299565844e+03 5.623413251903491172e+00
1.135609259800053769e+04 1.000000000000000000e+01
1.353389741880970723e+04 1.778279410038922848e+01
1.628289286410043860e+04 3.162277660168379256e+01
1.972912177231588430e+04 5.623413251903490817e+01
2.400376659437123817e+04 1.000000000000000000e+02
2.922150566108002022e+04 1.778279410038922776e+02
3.544590379110577487e+04 3.162277660168379612e+02
