# Temperature (K), Pressure (bars)
1.912835037296774317e+03 9.999999999999999547e-07
1.956586881247097836e+03 1.778279410038922901e-06
2.000338725199617329e+03 3.162277660168379191e-06
2.049675290499763378e+03 5.623413251903491208e-06
2.100218271922367421e+03 1.000000000000000082e-05
2.147133266751872725e+03 1.778279410038922901e-05
2.188664507594084171e+03 3.162277660168379530e-05
2.224591148087799411e+03 5.623413251903490700e-05
2.256400923265277925e+03 1.000000000000000048e-04
2.286339608978862543e+03 1.778279410038922698e-04
2.316652448326864942e+03 3.162277660168379394e-04
2.349336172422483742e+03 5.623413251903490971e-04
2.386240243315423868e+03 1.000000000000000021e-03
2.429494267599319755e+03 1.778279410038922752e-03
2.480573956681848358e+03 3.162277660168379394e-03
2.542159061474947066e+03 5.623413251903490971e-03
2.612826973701553925e+03 1.000000000000000021e-02
2.697647997156342171e+03 1.778279410038922925e-02
2.809785910918102672e+03 3.162277660168379134e-02
2.943862998098701610e+03 5.623413251903491145e-02
3.093763168993727049e+03 1.000000000000000056e-01
3.263935006953782249e+03 1.778279410038922925e-01
3.455347844772546978e+03 3.162277660168379412e-01
3.668127827474851074e+03 5.623413251903490728e-01
3.904317574818499907e+03 1.000000000000000000e+00
4.170761845649363750e+03 1.778279410038922759e+00
4.479843815757600169e+03 3.162277660168379523e+00
4.839859514532061439e+03 5.623413251903491172e+00
5.294505909690813496e+03 1.000000000000000000e+01
5.902302655019922895e+03 1.778279410038922848e+01
6.771179927840784330e+03 3.162277660168379256e+01
8.071533886889569658e+03 5.623413251903490817e+01
9.840551664481383341e+03 1.000000000000000000e+02
1.198133316176947301e+04 1.778279410038922776e+02
1.453175699088175315e+04 3.162277660168379612e+02
