# Temperature (K), Pressure (bars)
1.699317755245511307e+03 9.999999999999999547e-07
1.705553928052914898e+03 1.778279410038922901e-06
1.711790100941127093e+03 3.162277660168379191e-06
1.726686012931528694e+03 5.623413251903491208e-06
1.772651193092234735e+03 1.000000000000000082e-05
1.827868377439340748e+03 1.778279410038922901e-05
1.873493704934289781e+03 3.162277660168379530e-05
1.920624966662513543e+03 5.623413251903490700e-05
1.970411128847318196e+03 1.000000000000000048e-04
2.019227755471025375e+03 1.778279410038922698e-04
2.064725411213335974e+03 3.162277660168379394e-04
2.104586556503469637e+03 5.623413251903490971e-04
2.139819927226130858e+03 1.000000000000000021e-03
2.172016677009085015e+03 1.778279410038922752e-03
2.202474751283166370e+03 3.162277660168379394e-03
2.232799818629713627e+03 5.623413251903490971e-03
2.266035897033735637e+03 1.000000000000000021e-02
2.304438617658434850e+03 1.778279410038922925e-02
2.353110720160007986e+03 3.162277660168379134e-02
2.412893660863171590e+03 5.623413251903491145e-02
2.495977889341356786e+03 1.000000000000000056e-01
2.626215768575099446e+03 1.778279410038922925e-01
2.789199441189620757e+03 3.162277660168379412e-01
2.961648026118489724e+03 5.623413251903490728e-01
3.143801013503403738e+03 1.000000000000000000e+00
3.337953407456463538e+03 1.778279410038922759e+00
3.545440648218620481e+03 3.162277660168379523e+00
3.768324818573988978e+03 5.623413251903491172e+00
4.010781945029256804e+03 1.000000000000000000e+01
4.278426216163754361e+03 1.778279410038922848e+01
4.578205800207926586e+03 3.162277660168379256e+01
4.919252907476837208e+03 5.623413251903490817e+01
5.317677350191695950e+03 1.000000000000000000e+02
5.785568163528660989e+03 1.778279410038922776e+02
6.345717497285355421e+03 3.162277660168379612e+02
