# Temperature (K), Pressure (bars)
8.331380786778703396e+02 3.162277660168379394e-04
8.812535767108394111e+02 5.623413251903490971e-04
9.293690758827065110e+02 1.000000000000000021e-03
9.759910533563910349e+02 1.778279410038922752e-03
1.022910664680563400e+03 3.162277660168379394e-03
1.070746261955390310e+03 5.623413251903490971e-03
1.119966929604337793e+03 1.000000000000000021e-02
1.172986936755222359e+03 1.778279410038922925e-02
1.233580216372056384e+03 3.162277660168379134e-02
1.307615057616936383e+03 5.623413251903491145e-02
1.403211435590015071e+03 1.000000000000000056e-01
1.542823520872288555e+03 1.778279410038922925e-01
1.753929164222994586e+03 3.162277660168379412e-01
2.018734386642286609e+03 5.623413251903490728e-01
2.290537229443643355e+03 1.000000000000000000e+00
2.550040342598249481e+03 1.778279410038922759e+00
2.798323536733753826e+03 3.162277660168379523e+00
3.039579494229786178e+03 5.623413251903491172e+00
3.280881745802408659e+03 1.000000000000000000e+01
3.529683279897528337e+03 1.778279410038922848e+01
3.794899193525529881e+03 3.162277660168379256e+01
4.081697748239477733e+03 5.623413251903490817e+01
4.396809099084551235e+03 1.000000000000000000e+02
4.743329309276016829e+03 1.778279410038922776e+02
5.139611385943952882e+03 3.162277660168379612e+02
