# Temperature (K), Pressure (bars)
1.035503605436060980e+03 5.623413251903490971e-04
1.078182110563428296e+03 1.000000000000000021e-03
1.120860618099842441e+03 1.778279410038922752e-03
1.164663803870680340e+03 3.162277660168379394e-03
1.211597975765784440e+03 5.623413251903490971e-03
1.261240768337715735e+03 1.000000000000000021e-02
1.313201664122644843e+03 1.778279410038922925e-02
1.369126375432299938e+03 3.162277660168379134e-02
1.432833170623721571e+03 5.623413251903491145e-02
1.507926891187083584e+03 1.000000000000000056e-01
1.600922274891208417e+03 1.778279410038922925e-01
1.716194971321492858e+03 3.162277660168379412e-01
1.853536176699213456e+03 5.623413251903490728e-01
2.012031179356589291e+03 1.000000000000000000e+00
2.218650632674208737e+03 1.778279410038922759e+00
2.490371286121493085e+03 3.162277660168379523e+00
2.772471223499668213e+03 5.623413251903491172e+00
3.035659260654443642e+03 1.000000000000000000e+01
3.297780304607359085e+03 1.778279410038922848e+01
3.568269335894012329e+03 3.162277660168379256e+01
3.854011866608950186e+03 5.623413251903490817e+01
4.162265057403388710e+03 1.000000000000000000e+02
4.496552945990709304e+03 1.778279410038922776e+02
4.873351690785465507e+03 3.162277660168379612e+02
