# Temperature (K), Pressure (bars)
2.275660999221089241e+03 9.999999999999999547e-07
2.290430108922621457e+03 1.778279410038922901e-06
2.305199218624843525e+03 3.162277660168379191e-06
2.326833430135064191e+03 5.623413251903491208e-06
2.352503554380100468e+03 1.000000000000000082e-05
2.379100007243061555e+03 1.778279410038922901e-05
2.405612310210873147e+03 3.162277660168379530e-05
2.430160176227973352e+03 5.623413251903490700e-05
2.450023005153009763e+03 1.000000000000000048e-04
2.462255623018542337e+03 1.778279410038922698e-04
2.468469088016802289e+03 3.162277660168379394e-04
2.475159739924407404e+03 5.623413251903490971e-04
2.487490325011563073e+03 1.000000000000000021e-03
2.506750676975210354e+03 1.778279410038922752e-03
2.533447189728401554e+03 3.162277660168379394e-03
2.567167865242145126e+03 5.623413251903490971e-03
2.610347120373972302e+03 1.000000000000000021e-02
2.660916997573433946e+03 1.778279410038922925e-02
2.730372246386689312e+03 3.162277660168379134e-02
2.840969386027371911e+03 5.623413251903491145e-02
2.977705168509874056e+03 1.000000000000000056e-01
3.124373487422541075e+03 1.778279410038922925e-01
3.286603774687313489e+03 3.162277660168379412e-01
3.467762894410503577e+03 5.623413251903490728e-01
3.670771140324237876e+03 1.000000000000000000e+00
3.897793774988985206e+03 1.778279410038922759e+00
4.152014365371658641e+03 3.162277660168379523e+00
4.440184736260815953e+03 5.623413251903491172e+00
4.773866290443255821e+03 1.000000000000000000e+01
5.167540128061285941e+03 1.778279410038922848e+01
5.654453690652068872e+03 3.162277660168379256e+01
6.283392689752085062e+03 5.623413251903490817e+01
7.141152023876908970e+03 1.000000000000000000e+02
8.361431148601745008e+03 1.778279410038922776e+02
1.005079064952666522e+04 3.162277660168379612e+02
