# Temperature (K), Pressure (bars)
9.128981081744580024e+02 3.162277660168379530e-05
9.600724906781200616e+02 5.623413251903490700e-05
1.007246872973092195e+03 1.000000000000000048e-04
1.052714762495055766e+03 1.778279410038922698e-04
1.093546934183264284e+03 3.162277660168379394e-04
1.127060601512744142e+03 5.623413251903490971e-04
1.156660232964520446e+03 1.000000000000000021e-03
1.186247709070810060e+03 1.778279410038922752e-03
1.216307517603305087e+03 3.162277660168379394e-03
1.246416258120475732e+03 5.623413251903490971e-03
1.276035263149974526e+03 1.000000000000000021e-02
1.304659718868780828e+03 1.778279410038922925e-02
1.334700174166136776e+03 3.162277660168379134e-02
1.382599246858691004e+03 5.623413251903491145e-02
1.459620899959753160e+03 1.000000000000000056e-01
1.558771260160253632e+03 1.778279410038922925e-01
1.683942156906025957e+03 3.162277660168379412e-01
1.845681485341608095e+03 5.623413251903490728e-01
2.065170321256939133e+03 1.000000000000000000e+00
2.341123160291086151e+03 1.778279410038922759e+00
2.620197381366293484e+03 3.162277660168379523e+00
2.879511203160280729e+03 5.623413251903491172e+00
3.132954751925860364e+03 1.000000000000000000e+01
3.388642955785006507e+03 1.778279410038922848e+01
3.656270375866672111e+03 3.162277660168379256e+01
3.941779221402446638e+03 5.623413251903490817e+01
4.252070821677491040e+03 1.000000000000000000e+02
4.590306983235275766e+03 1.778279410038922776e+02
4.973933948811111804e+03 3.162277660168379612e+02
