# Temperature (K), Pressure (bars)
9.165946699888540934e+02 3.162277660168379394e-04
9.587531469645949755e+02 5.623413251903490971e-04
1.000911624115423137e+03 1.000000000000000021e-03
1.041729091894188969e+03 1.778279410038922752e-03
1.084263082383194160e+03 3.162277660168379394e-03
1.129639198533794797e+03 5.623413251903490971e-03
1.177297853405721526e+03 1.000000000000000021e-02
1.227534314510475269e+03 1.778279410038922925e-02
1.284573359499418302e+03 3.162277660168379134e-02
1.363616990492588684e+03 5.623413251903491145e-02
1.473731802281439286e+03 1.000000000000000056e-01
1.612756897540192085e+03 1.778279410038922925e-01
1.769878869913498420e+03 3.162277660168379412e-01
1.962184079814803226e+03 5.623413251903490728e-01
2.215695250666481115e+03 1.000000000000000000e+00
2.487484530601021106e+03 1.778279410038922759e+00
2.742271071800128539e+03 3.162277660168379523e+00
2.989058446993542020e+03 5.623413251903491172e+00
3.234292194669856144e+03 1.000000000000000000e+01
3.485292072267397998e+03 1.778279410038922848e+01
3.751021838548849701e+03 3.162277660168379256e+01
4.037214348350766159e+03 5.623413251903490817e+01
4.350617239062390581e+03 1.000000000000000000e+02
4.694484773739008233e+03 1.778279410038922776e+02
5.086667134963955505e+03 3.162277660168379612e+02
