# Temperature (K), Pressure (bars)
2.414936373677106985e+03 1.778279410038922901e-06
2.424541489010097393e+03 3.162277660168379191e-06
2.434147909348839676e+03 5.623413251903491208e-06
2.453300879952318155e+03 1.000000000000000082e-05
2.482797123830845067e+03 1.778279410038922901e-05
2.518640896842138773e+03 3.162277660168379530e-05
2.555884051393101799e+03 5.623413251903490700e-05
2.594987645412575603e+03 1.000000000000000048e-04
2.638352578917783376e+03 1.778279410038922698e-04
2.685394942286665810e+03 3.162277660168379394e-04
2.735692897261478720e+03 5.623413251903490971e-04
2.789510928929895726e+03 1.000000000000000021e-03
2.845592905427449296e+03 1.778279410038922752e-03
2.900561956355775237e+03 3.162277660168379394e-03
2.950149642994915666e+03 5.623413251903490971e-03
2.992540382109593338e+03 1.000000000000000021e-02
3.028830485433813010e+03 1.778279410038922925e-02
3.070288556512545256e+03 3.162277660168379134e-02
3.120749416652547552e+03 5.623413251903491145e-02
3.197314622342934854e+03 1.000000000000000056e-01
3.333670409510400077e+03 1.778279410038922925e-01
3.512334650824067467e+03 3.162277660168379412e-01
3.713696216804496544e+03 5.623413251903490728e-01
3.949811826140605717e+03 1.000000000000000000e+00
4.231330741988761474e+03 1.778279410038922759e+00
4.541931340973849728e+03 3.162277660168379523e+00
4.924911542309963806e+03 5.623413251903491172e+00
5.423213275963306842e+03 1.000000000000000000e+01
6.124039318087669017e+03 1.778279410038922848e+01
7.183568818513423139e+03 3.162277660168379256e+01
8.718398608918581886e+03 5.623413251903490817e+01
1.064794229558584084e+04 1.000000000000000000e+02
1.296426645372155508e+04 1.778279410038922776e+02
1.572804887721843807e+04 3.162277660168379612e+02
