# Temperature (K), Pressure (bars)
1.924260608558110107e+03 1.778279410038922901e-06
1.925948275358815408e+03 3.162277660168379191e-06
1.928188295133934389e+03 5.623413251903491208e-06
1.934422062076052498e+03 1.000000000000000082e-05
1.945682194742104912e+03 1.778279410038922901e-05
1.961882945133326757e+03 3.162277660168379530e-05
1.984098676750444611e+03 5.623413251903490700e-05
2.013927212722731383e+03 1.000000000000000048e-04
2.050692575000546640e+03 1.778279410038922698e-04
2.092925263563734916e+03 3.162277660168379394e-04
2.140375094046243248e+03 5.623413251903490971e-04
2.192560144972022954e+03 1.000000000000000021e-03
2.250757740416313482e+03 1.778279410038922752e-03
2.315209922062564146e+03 3.162277660168379394e-03
2.391110691868933827e+03 5.623413251903490971e-03
2.488640207421653031e+03 1.000000000000000021e-02
2.603013710290872950e+03 1.778279410038922925e-02
2.726309437208587497e+03 3.162277660168379134e-02
2.859385480471386472e+03 5.623413251903491145e-02
3.003853002953495889e+03 1.000000000000000056e-01
3.161951620897427347e+03 1.778279410038922925e-01
3.336383706784044080e+03 3.162277660168379412e-01
3.529534544173782251e+03 5.623413251903490728e-01
3.743108619705857564e+03 1.000000000000000000e+00
3.979814807625336471e+03 1.778279410038922759e+00
4.245678890232011327e+03 3.162277660168379523e+00
4.550862799866072237e+03 5.623413251903491172e+00
4.905697669927159950e+03 1.000000000000000000e+01
5.340799633065013950e+03 1.778279410038922848e+01
5.897722986436829160e+03 3.162277660168379256e+01
6.653707123752824373e+03 5.623413251903490817e+01
7.739017519076028293e+03 1.000000000000000000e+02
9.285825393365588752e+03 1.778279410038922776e+02
1.123970866553644555e+04 3.162277660168379612e+02
