# Temperature (K), Pressure (bars)
8.227932222899848966e+02 1.000000000000000048e-04
8.759724343837556262e+02 1.778279410038922698e-04
9.291516476921611911e+02 3.162277660168379394e-04
9.801879876206658082e+02 5.623413251903490971e-04
1.030509763298340658e+03 1.000000000000000021e-03
1.081610637846734335e+03 1.778279410038922752e-03
1.135143529123480448e+03 3.162277660168379394e-03
1.193504763638067743e+03 5.623413251903490971e-03
1.259784865910074586e+03 1.000000000000000021e-02
1.339027457404135703e+03 1.778279410038922925e-02
1.441637675547118079e+03 3.162277660168379134e-02
1.585777357846469386e+03 5.623413251903491145e-02
1.792075758531778774e+03 1.000000000000000056e-01
2.046616982030209556e+03 1.778279410038922925e-01
2.300306115282345672e+03 3.162277660168379412e-01
2.532282499244585779e+03 5.623413251903490728e-01
2.750325881958872742e+03 1.000000000000000000e+00
2.961278799007493490e+03 1.778279410038922759e+00
3.171964763510451121e+03 3.162277660168379523e+00
3.388660878306029645e+03 5.623413251903491172e+00
3.617109978376613526e+03 1.000000000000000000e+01
3.862844829260179722e+03 1.778279410038922848e+01
4.133891147448544871e+03 3.162277660168379256e+01
4.434802403116696951e+03 5.623413251903490817e+01
4.772992502606287417e+03 1.000000000000000000e+02
5.151897540997193573e+03 1.778279410038922776e+02
5.594783245370384975e+03 3.162277660168379612e+02
