# Temperature (K), Pressure (bars)
1.961172400129379184e+03 9.999999999999999547e-07
1.961700391160264644e+03 1.778279410038922901e-06
1.962228382191150786e+03 3.162277660168379191e-06
1.970204421949710195e+03 5.623413251903491208e-06
1.985585418628788375e+03 1.000000000000000082e-05
2.008748066375399503e+03 1.778279410038922901e-05
2.039202145886812332e+03 3.162277660168379530e-05
2.074249977296970428e+03 5.623413251903490700e-05
2.112460766984242582e+03 1.000000000000000048e-04
2.153279078893055157e+03 1.778279410038922698e-04
2.196292290822534596e+03 3.162277660168379394e-04
2.242141627569817501e+03 5.623413251903490971e-04
2.292154587274297228e+03 1.000000000000000021e-03
2.348299774507952861e+03 1.778279410038922752e-03
2.411443181731963250e+03 3.162277660168379394e-03
2.489632384827937130e+03 5.623413251903490971e-03
2.591791954405480283e+03 1.000000000000000021e-02
2.709301919861736678e+03 1.778279410038922925e-02
2.835548122540940767e+03 3.162277660168379134e-02
2.973506416263821393e+03 5.623413251903491145e-02
3.124918249424511487e+03 1.000000000000000056e-01
3.292290669218673429e+03 1.778279410038922925e-01
3.478982408838009178e+03 3.162277660168379412e-01
3.688907668601588739e+03 5.623413251903490728e-01
3.926471224366195202e+03 1.000000000000000000e+00
4.198432476255937218e+03 1.778279410038922759e+00
4.517408507116746478e+03 3.162277660168379523e+00
4.890115889309528029e+03 5.623413251903491172e+00
5.368602428556500854e+03 1.000000000000000000e+01
6.020948079277322904e+03 1.778279410038922848e+01
6.956009597159001714e+03 3.162277660168379256e+01
8.340719224695256344e+03 5.623413251903490817e+01
1.017625605462179556e+04 1.000000000000000000e+02
1.238514150617356063e+04 1.778279410038922776e+02
1.501964033883447337e+04 3.162277660168379612e+02
