# Temperature (K), Pressure (bars)
2.175163021747622224e+03 9.999999999999999547e-07
2.184884217688260378e+03 1.778279410038922901e-06
2.194605413628899441e+03 3.162277660168379191e-06
2.217549360289691776e+03 5.623413251903491208e-06
2.246366118559476945e+03 1.000000000000000082e-05
2.277736677543975929e+03 1.778279410038922901e-05
2.314818718246517165e+03 3.162277660168379530e-05
2.357770112899791457e+03 5.623413251903490700e-05
2.406522190835106812e+03 1.000000000000000048e-04
2.460558820828151966e+03 1.778279410038922698e-04
2.517378261533681780e+03 3.162277660168379394e-04
2.574583371638694643e+03 5.623413251903490971e-04
2.631195573018738287e+03 1.000000000000000021e-03
2.685506479253057023e+03 1.778279410038922752e-03
2.734971825468441239e+03 3.162277660168379394e-03
2.781135620734656186e+03 5.623413251903490971e-03
2.827181315436764180e+03 1.000000000000000021e-02
2.880710617925464248e+03 1.778279410038922925e-02
2.932900420610348647e+03 3.162277660168379134e-02
2.999031759211562985e+03 5.623413251903491145e-02
3.124971851802205038e+03 1.000000000000000056e-01
3.290469326921866013e+03 1.778279410038922925e-01
3.470855844576457002e+03 3.162277660168379412e-01
3.678291439457517754e+03 5.623413251903490728e-01
3.916329212654000912e+03 1.000000000000000000e+00
4.190091725531477096e+03 1.778279410038922759e+00
4.511289318656501564e+03 3.162277660168379523e+00
4.882804037513483308e+03 5.623413251903491172e+00
5.359291094817633166e+03 1.000000000000000000e+01
6.015747108684797240e+03 1.778279410038922848e+01
6.994162684016020648e+03 3.162277660168379256e+01
8.439634391707735631e+03 5.623413251903490817e+01
1.000000000000000000e+04 1.000000000000000000e+02
1.000000000000000000e+04 1.778279410038922776e+02
1.000000000000000000e+04 3.162277660168379612e+02
