# Temperature (K), Pressure (bars)
2.151575584692827761e+03 9.999999999999999547e-07
2.166177770667117329e+03 1.778279410038922901e-06
2.180779956641407352e+03 3.162277660168379191e-06
2.216636902575837667e+03 5.623413251903491208e-06
2.260976121361660262e+03 1.000000000000000082e-05
2.307952917427930970e+03 1.778279410038922901e-05
2.359234621500591857e+03 3.162277660168379530e-05
2.411728586553657806e+03 5.623413251903490700e-05
2.464405829169320896e+03 1.000000000000000048e-04
2.515998535999024170e+03 1.778279410038922698e-04
2.565258021158234442e+03 3.162277660168379394e-04
2.611907531902377741e+03 5.623413251903490971e-04
2.656216789967460045e+03 1.000000000000000021e-03
2.700367990418206318e+03 1.778279410038922752e-03
2.749508708133145319e+03 3.162277660168379394e-03
2.806295882283543961e+03 5.623413251903490971e-03
2.869627582509415788e+03 1.000000000000000021e-02
2.929078134101708201e+03 1.778279410038922925e-02
3.005566986877145155e+03 3.162277660168379134e-02
3.139387850662312303e+03 5.623413251903491145e-02
3.315866248506809370e+03 1.000000000000000056e-01
3.502511257176703111e+03 1.778279410038922925e-01
3.715657007751487527e+03 3.162277660168379412e-01
3.965505854308164089e+03 5.623413251903490728e-01
4.250015052529081913e+03 1.000000000000000000e+00
4.605238254507010424e+03 1.778279410038922759e+00
5.087365107425242059e+03 3.162277660168379523e+00
5.812625773105939516e+03 5.623413251903491172e+00
6.963601563307460310e+03 1.000000000000000000e+01
8.562041560256144294e+03 1.778279410038922848e+01
1.000000000000000000e+04 3.162277660168379256e+01
1.000000000000000000e+04 5.623413251903490817e+01
1.000000000000000000e+04 1.000000000000000000e+02
1.000000000000000000e+04 1.778279410038922776e+02
1.000000000000000000e+04 3.162277660168379612e+02
