# Temperature (K), Pressure (bars)
7.409345021360401233e+02 1.000000000000000048e-04
7.843467431844458133e+02 1.778279410038922698e-04
8.277589852660291854e+02 3.162277660168379394e-04
8.704585232433410056e+02 5.623413251903490971e-04
9.135223763624558160e+02 1.000000000000000021e-03
9.577893288416818223e+02 1.778279410038922752e-03
1.004482806019555142e+03 3.162277660168379394e-03
1.056490411516212589e+03 5.623413251903490971e-03
1.116815300280453584e+03 1.000000000000000021e-02
1.191892231650308076e+03 1.778279410038922925e-02
1.285403638067337170e+03 3.162277660168379134e-02
1.418768969728117327e+03 5.623413251903491145e-02
1.618258790130591478e+03 1.000000000000000056e-01
1.863008161418865711e+03 1.778279410038922925e-01
2.122696408835915918e+03 3.162277660168379412e-01
2.378359761070145851e+03 5.623413251903490728e-01
2.616870454879347108e+03 1.000000000000000000e+00
2.841409615254112396e+03 1.778279410038922759e+00
3.059989186464238628e+03 3.162277660168379523e+00
3.280611129463618909e+03 5.623413251903491172e+00
3.509988349742968694e+03 1.000000000000000000e+01
3.754077478449018599e+03 1.778279410038922848e+01
4.021142339812316550e+03 3.162277660168379256e+01
4.315230445376077114e+03 5.623413251903490817e+01
4.643259582649946424e+03 1.000000000000000000e+02
5.008668329888251719e+03 1.778279410038922776e+02
5.431874025527520644e+03 3.162277660168379612e+02
