# Temperature (K), Pressure (bars)
1.045152853805458335e+03 1.000000000000000048e-04
1.072753263724708404e+03 1.778279410038922698e-04
1.100353676067542438e+03 3.162277660168379394e-04
1.131442708172118728e+03 5.623413251903490971e-04
1.161027842975242493e+03 1.000000000000000021e-03
1.196573080212213199e+03 1.778279410038922752e-03
1.257872254286092584e+03 3.162277660168379394e-03
1.328664693925441043e+03 5.623413251903490971e-03
1.413352448780421582e+03 1.000000000000000021e-02
1.534378048661618777e+03 1.778279410038922925e-02
1.639037093438803595e+03 3.162277660168379134e-02
1.698980893431983986e+03 5.623413251903491145e-02
1.756741358907572021e+03 1.000000000000000056e-01
1.829570634104249848e+03 1.778279410038922925e-01
1.918322056100042346e+03 3.162277660168379412e-01
2.019887204490577460e+03 5.623413251903490728e-01
2.178111126423464611e+03 1.000000000000000000e+00
2.442093580676478268e+03 1.778279410038922759e+00
2.727029033351115231e+03 3.162277660168379523e+00
2.978047359948751364e+03 5.623413251903491172e+00
3.224968129017478077e+03 1.000000000000000000e+01
3.477129576938680657e+03 1.778279410038922848e+01
3.743182411562925608e+03 3.162277660168379256e+01
4.029421298612514875e+03 5.623413251903490817e+01
4.342676541818328587e+03 1.000000000000000000e+02
4.686289816987374252e+03 1.778279410038922776e+02
5.077770478262968027e+03 3.162277660168379612e+02
