# Temperature (K), Pressure (bars)
9.399287572907763888e+02 1.000000000000000082e-05
9.795421565032593207e+02 1.778279410038922901e-05
1.022558170748702878e+03 3.162277660168379530e-05
1.068793312668620501e+03 5.623413251903490700e-05
1.118077095439937239e+03 1.000000000000000048e-04
1.170903639909548929e+03 1.778279410038922698e-04
1.228184805830738242e+03 3.162277660168379394e-04
1.291967101587872094e+03 5.623413251903490971e-04
1.364029718821733468e+03 1.000000000000000021e-03
1.450314427121660628e+03 1.778279410038922752e-03
1.552830646268809460e+03 3.162277660168379394e-03
1.698969726591007657e+03 5.623413251903490971e-03
1.914612861877319347e+03 1.000000000000000021e-02
2.148160819602403535e+03 1.778279410038922925e-02
2.356355968026154642e+03 3.162277660168379134e-02
2.546388405287148089e+03 5.623413251903491145e-02
2.725690754592465055e+03 1.000000000000000056e-01
2.900021866733807656e+03 1.778279410038922925e-01
3.073680587916646800e+03 3.162277660168379412e-01
3.250802864355178826e+03 5.623413251903490728e-01
3.435942493574515993e+03 1.000000000000000000e+00
3.633740245473510186e+03 1.778279410038922759e+00
3.848868141963960170e+03 3.162277660168379523e+00
4.086430592965170035e+03 5.623413251903491172e+00
4.352507150183666454e+03 1.000000000000000000e+01
4.654942856912471143e+03 1.778279410038922848e+01
5.004734213748131879e+03 3.162277660168379256e+01
5.420694902874710351e+03 5.623413251903490817e+01
5.920688746001127583e+03 1.000000000000000000e+02
6.536292616920592991e+03 1.778279410038922776e+02
7.314845685061362929e+03 3.162277660168379612e+02
