# Temperature (K), Pressure (bars)
8.206319998981900881e+02 5.623413251903490971e-04
8.622236143981489249e+02 1.000000000000000021e-03
9.038152301901002375e+02 1.778279410038922752e-03
9.442352901654435300e+02 3.162277660168379394e-03
9.849519352388874722e+02 5.623413251903490971e-03
1.026980807027057836e+03 1.000000000000000021e-02
1.070075423282945621e+03 1.778279410038922925e-02
1.115460846325662942e+03 3.162277660168379134e-02
1.165986743561710227e+03 5.623413251903491145e-02
1.226498358664076704e+03 1.000000000000000056e-01
1.302571247943091748e+03 1.778279410038922925e-01
1.407682346053038145e+03 3.162277660168379412e-01
1.573226690269477558e+03 5.623413251903490728e-01
1.808433754567116466e+03 1.000000000000000000e+00
2.080658791835403918e+03 1.778279410038922759e+00
2.362260737649532530e+03 3.162277660168379523e+00
2.642001170654406906e+03 5.623413251903491172e+00
2.915032670753201728e+03 1.000000000000000000e+01
3.184803345363146491e+03 1.778279410038922848e+01
3.459969861417092488e+03 3.162277660168379256e+01
3.747245593339433981e+03 5.623413251903490817e+01
4.054184402119060906e+03 1.000000000000000000e+02
4.384718569285123522e+03 1.778279410038922776e+02
4.754632111291383808e+03 3.162277660168379612e+02
