# Temperature (K), Pressure (bars)
1.015452775595894764e+03 3.162277660168379394e-03
1.060418089432435181e+03 5.623413251903490971e-03
1.105383404151687500e+03 1.000000000000000021e-02
1.149064374648199191e+03 1.778279410038922925e-02
1.193717272290839674e+03 3.162277660168379134e-02
1.240863913089192010e+03 5.623413251903491145e-02
1.290015202742994688e+03 1.000000000000000056e-01
1.346890694185779466e+03 1.778279410038922925e-01
1.425258679152711920e+03 3.162277660168379412e-01
1.537918462830493809e+03 5.623413251903490728e-01
1.687329833739729565e+03 1.000000000000000000e+00
1.875163818241122044e+03 1.778279410038922759e+00
2.120903540085741042e+03 3.162277660168379523e+00
2.414961086464813434e+03 5.623413251903491172e+00
2.711861558682407122e+03 1.000000000000000000e+01
2.997508067956344348e+03 1.778279410038922848e+01
3.283817456247093105e+03 3.162277660168379256e+01
3.576882262277832069e+03 5.623413251903490817e+01
3.884616344731845402e+03 1.000000000000000000e+02
4.211537985400129401e+03 1.778279410038922776e+02
4.573022212390096684e+03 3.162277660168379612e+02
