# Temperature (K), Pressure (bars)
2.257895331761648777e+03 9.999999999999999547e-07
2.285101638375933817e+03 1.778279410038922901e-06
2.312307944990219312e+03 3.162277660168379191e-06
2.342459832449964324e+03 5.623413251903491208e-06
2.375650692601942410e+03 1.000000000000000082e-05
2.411207867519745378e+03 1.778279410038922901e-05
2.448022462849909971e+03 3.162277660168379530e-05
2.484116203861971371e+03 5.623413251903490700e-05
2.516937268771824165e+03 1.000000000000000048e-04
2.544743208297932142e+03 1.778279410038922698e-04
2.568527114780981719e+03 3.162277660168379394e-04
2.592222381179596596e+03 5.623413251903490971e-04
2.620928442966207967e+03 1.000000000000000021e-03
2.658896317818707303e+03 1.778279410038922752e-03
2.708643847362052838e+03 3.162277660168379394e-03
2.772267297365370723e+03 5.623413251903490971e-03
2.850849761135117660e+03 1.000000000000000021e-02
2.946881825020952419e+03 1.778279410038922925e-02
3.066238257835115292e+03 3.162277660168379134e-02
3.210660095384449050e+03 5.623413251903491145e-02
3.381538839965162424e+03 1.000000000000000056e-01
3.573640435431183050e+03 1.778279410038922925e-01
3.801912842379712856e+03 3.162277660168379412e-01
4.070409058842166360e+03 5.623413251903490728e-01
4.392131826712557995e+03 1.000000000000000000e+00
4.824875913977833989e+03 1.778279410038922759e+00
5.471929028940894568e+03 3.162277660168379523e+00
6.504515634665731341e+03 5.623413251903491172e+00
8.003087922679238545e+03 1.000000000000000000e+01
9.766790006917795836e+03 1.778279410038922848e+01
1.000000000000000000e+04 3.162277660168379256e+01
1.000000000000000000e+04 5.623413251903490817e+01
1.000000000000000000e+04 1.000000000000000000e+02
1.000000000000000000e+04 1.778279410038922776e+02
1.000000000000000000e+04 3.162277660168379612e+02
