# Temperature (K), Pressure (bars)
1.734857468264843419e+03 9.999999999999999547e-07
1.747866165901908971e+03 1.778279410038922901e-06
1.760874863541170271e+03 3.162277660168379191e-06
1.776708931792320527e+03 5.623413251903491208e-06
1.799456103637115120e+03 1.000000000000000082e-05
1.829229087094712213e+03 1.778279410038922901e-05
1.864610613226459463e+03 3.162277660168379530e-05
1.906575490382027510e+03 5.623413251903490700e-05
1.954688365731579097e+03 1.000000000000000048e-04
2.007988170395636871e+03 1.778279410038922698e-04
2.066218075262740967e+03 3.162277660168379394e-04
2.129323198435337417e+03 5.623413251903490971e-04
2.198652729722946788e+03 1.000000000000000021e-03
2.280345743354305796e+03 1.778279410038922752e-03
2.378856535061378963e+03 3.162277660168379394e-03
2.488772849710302580e+03 5.623413251903490971e-03
2.605811532387796888e+03 1.000000000000000021e-02
2.731026394500333481e+03 1.778279410038922925e-02
2.865851898855071795e+03 3.162277660168379134e-02
3.012432988427397959e+03 5.623413251903491145e-02
3.173757520782527990e+03 1.000000000000000056e-01
3.353456736227087276e+03 1.778279410038922925e-01
3.555123696864101476e+03 3.162277660168379412e-01
3.782316717713703838e+03 5.623413251903490728e-01
4.041003916316757568e+03 1.000000000000000000e+00
4.343643806172331097e+03 1.778279410038922759e+00
4.691696227747116609e+03 3.162277660168379523e+00
5.142016997484032800e+03 5.623413251903491172e+00
5.772901961914178173e+03 1.000000000000000000e+01
6.733770645209217946e+03 1.778279410038922848e+01
8.169187835880709827e+03 3.162277660168379256e+01
9.993096123669974986e+03 5.623413251903490817e+01
1.216087417016601466e+04 1.000000000000000000e+02
1.480590543575072297e+04 1.778279410038922776e+02
1.796217026649100080e+04 3.162277660168379612e+02
