# Temperature (K), Pressure (bars)
2.394480184882188496e+03 9.999999999999999547e-07
2.410160983397001473e+03 1.778279410038922901e-06
2.425841781911814905e+03 3.162277660168379191e-06
2.453636847195986320e+03 5.623413251903491208e-06
2.486193371467134057e+03 1.000000000000000082e-05
2.518955141697591898e+03 1.778279410038922901e-05
2.555203546856094817e+03 3.162277660168379530e-05
2.595642297860551480e+03 5.623413251903490700e-05
2.640241623134708334e+03 1.000000000000000048e-04
2.688437661647355526e+03 1.778279410038922698e-04
2.738367549641365258e+03 3.162277660168379394e-04
2.787745643497227775e+03 5.623413251903490971e-04
2.833719965479773236e+03 1.000000000000000021e-03
2.873895453779155105e+03 1.778279410038922752e-03
2.908429427116635452e+03 3.162277660168379394e-03
2.942778991180027788e+03 5.623413251903490971e-03
2.984145684467629962e+03 1.000000000000000021e-02
3.041108315907581073e+03 1.778279410038922925e-02
3.113483453186770930e+03 3.162277660168379134e-02
3.210226556600393906e+03 5.623413251903491145e-02
3.354795055551321639e+03 1.000000000000000056e-01
3.541426925049447618e+03 1.778279410038922925e-01
3.752924181189318915e+03 3.162277660168379412e-01
4.006538881341220531e+03 5.623413251903490728e-01
4.300271384544917055e+03 1.000000000000000000e+00
4.677351112867713709e+03 1.778279410038922759e+00
5.205991133207333405e+03 3.162277660168379523e+00
6.029406489066790527e+03 5.623413251903491172e+00
7.318400650011237303e+03 1.000000000000000000e+01
9.002400580365030692e+03 1.778279410038922848e+01
1.000000000000000000e+04 3.162277660168379256e+01
1.000000000000000000e+04 5.623413251903490817e+01
1.000000000000000000e+04 1.000000000000000000e+02
1.000000000000000000e+04 1.778279410038922776e+02
1.000000000000000000e+04 3.162277660168379612e+02
