# Temperature (K), Pressure (bars)
2.393510782924788145e+03 9.999999999999999547e-07
2.417965053805889966e+03 1.778279410038922901e-06
2.442419324686991786e+03 3.162277660168379191e-06
2.469781742032577768e+03 5.623413251903491208e-06
2.499503864764476020e+03 1.000000000000000082e-05
2.529757440749744092e+03 1.778279410038922901e-05
2.560179010967928207e+03 3.162277660168379530e-05
2.590372879263102277e+03 5.623413251903490700e-05
2.619095307419183882e+03 1.000000000000000048e-04
2.643892990598265442e+03 1.778279410038922698e-04
2.661715350552541167e+03 3.162277660168379394e-04
2.673370069650291498e+03 5.623413251903490971e-04
2.687650778074903428e+03 1.000000000000000021e-03
2.716006494166739685e+03 1.778279410038922752e-03
2.764007251988680309e+03 3.162277660168379394e-03
2.829861429962317743e+03 5.623413251903490971e-03
2.913103090390726720e+03 1.000000000000000021e-02
3.010712984543601578e+03 1.778279410038922925e-02
3.125553040503513785e+03 3.162277660168379134e-02
3.271643229398419408e+03 5.623413251903491145e-02
3.448593926438477865e+03 1.000000000000000056e-01
3.651271698916338664e+03 1.778279410038922925e-01
3.897495532265448674e+03 3.162277660168379412e-01
4.185049673062165311e+03 5.623413251903490728e-01
4.565069022979184410e+03 1.000000000000000000e+00
5.129311482422850531e+03 1.778279410038922759e+00
6.055514917716206583e+03 3.162277660168379523e+00
7.449471731892929711e+03 5.623413251903491172e+00
9.142877178548929805e+03 1.000000000000000000e+01
1.000000000000000000e+04 1.778279410038922848e+01
1.000000000000000000e+04 3.162277660168379256e+01
1.000000000000000000e+04 5.623413251903490817e+01
1.000000000000000000e+04 1.000000000000000000e+02
1.000000000000000000e+04 1.778279410038922776e+02
1.000000000000000000e+04 3.162277660168379612e+02
