# Temperature (K), Pressure (bars)
9.446063778517705032e+02 3.162277660168379394e-04
9.999996844222841901e+02 5.623413251903490971e-04
1.055392992509781379e+03 1.000000000000000021e-03
1.109168037970007617e+03 1.778279410038922752e-03
1.162150499799048930e+03 3.162277660168379394e-03
1.216235692301546123e+03 5.623413251903490971e-03
1.272209708425280041e+03 1.000000000000000021e-02
1.333230626859173753e+03 1.778279410038922925e-02
1.403043706898046139e+03 3.162277660168379134e-02
1.490513231812020422e+03 5.623413251903491145e-02
1.608130058641055257e+03 1.000000000000000056e-01
1.776455187243668206e+03 1.778279410038922925e-01
2.007293365251766318e+03 3.162277660168379412e-01
2.264574413812646071e+03 5.623413251903490728e-01
2.511928474416135487e+03 1.000000000000000000e+00
2.746807047014685850e+03 1.778279410038922759e+00
2.974749537372868872e+03 3.162277660168379523e+00
3.202349218439581364e+03 5.623413251903491172e+00
3.435918493162877439e+03 1.000000000000000000e+01
3.681638991264368542e+03 1.778279410038922848e+01
3.947642356912158448e+03 3.162277660168379256e+01
4.238989491771741996e+03 5.623413251903490817e+01
4.562518570051993265e+03 1.000000000000000000e+02
4.921678382509201583e+03 1.778279410038922776e+02
5.335985420813173732e+03 3.162277660168379612e+02
