# Temperature (K), Pressure (bars)
1.646448186342355257e+03 9.999999999999999547e-07
1.679923629610370426e+03 1.778279410038922901e-06
1.713399072880983113e+03 3.162277660168379191e-06
1.751564156354619627e+03 5.623413251903491208e-06
1.795882470394662050e+03 1.000000000000000082e-05
1.843352247506690901e+03 1.778279410038922901e-05
1.889895431659925862e+03 3.162277660168379530e-05
1.934096091646201785e+03 5.623413251903490700e-05
1.976816746216246656e+03 1.000000000000000048e-04
2.020577677301727135e+03 1.778279410038922698e-04
2.066933347109279566e+03 3.162277660168379394e-04
2.116237213977870852e+03 5.623413251903490971e-04
2.170535546336786865e+03 1.000000000000000021e-03
2.230789681746289261e+03 1.778279410038922752e-03
2.303310954845939250e+03 3.162277660168379394e-03
2.398241192767413850e+03 5.623413251903490971e-03
2.510930135870125014e+03 1.000000000000000021e-02
2.632987055230767510e+03 1.778279410038922925e-02
2.764184043519606348e+03 3.162277660168379134e-02
2.905823394243264829e+03 5.623413251903491145e-02
3.059985491349260428e+03 1.000000000000000056e-01
3.229207543369668656e+03 1.778279410038922925e-01
3.415557329480162025e+03 3.162277660168379412e-01
3.620551713100801862e+03 5.623413251903490728e-01
3.846521798478112942e+03 1.000000000000000000e+00
4.098998907219040120e+03 1.778279410038922759e+00
4.387734840609504317e+03 3.162277660168379523e+00
4.719518236196183352e+03 5.623413251903491172e+00
5.127010131369501323e+03 1.000000000000000000e+01
5.649927726540079675e+03 1.778279410038922848e+01
6.359734463741090622e+03 3.162277660168379256e+01
7.385900661198082162e+03 5.623413251903490817e+01
8.883697081344618709e+03 1.000000000000000000e+02
1.080716041036801107e+04 1.778279410038922776e+02
1.310802940508324173e+04 3.162277660168379612e+02
