# Temperature (K), Pressure (bars)
1.721908172066095631e+03 9.999999999999999547e-07
1.748873744018026628e+03 1.778279410038922901e-06
1.775839315969957624e+03 3.162277660168379191e-06
1.814297473343798856e+03 5.623413251903491208e-06
1.858577868084178817e+03 1.000000000000000082e-05
1.903160692311651474e+03 1.778279410038922901e-05
1.946709478203254776e+03 3.162277660168379530e-05
1.988302519321569207e+03 5.623413251903490700e-05
2.029551822966432610e+03 1.000000000000000048e-04
2.071649645380916809e+03 1.778279410038922698e-04
2.115835104468234476e+03 3.162277660168379394e-04
2.163472890615048073e+03 5.623413251903490971e-04
2.216554582148817190e+03 1.000000000000000021e-03
2.276338779429640454e+03 1.778279410038922752e-03
2.349195414169204014e+03 3.162277660168379394e-03
2.444317749921099676e+03 5.623413251903490971e-03
2.556134436066126455e+03 1.000000000000000021e-02
2.677090018296737526e+03 1.778279410038922925e-02
2.807897960673516081e+03 3.162277660168379134e-02
2.949987987931253883e+03 5.623413251903491145e-02
3.105725828282275415e+03 1.000000000000000056e-01
3.277996208060311801e+03 1.778279410038922925e-01
3.469309063026695640e+03 3.162277660168379412e-01
3.681600368315522701e+03 5.623413251903490728e-01
3.918126472491870572e+03 1.000000000000000000e+00
4.186167321577785515e+03 1.778279410038922759e+00
4.498841914257750432e+03 3.162277660168379523e+00
4.865602677541065532e+03 5.623413251903491172e+00
5.332770485390735303e+03 1.000000000000000000e+01
5.963944034564490721e+03 1.778279410038922848e+01
6.875624901426086581e+03 3.162277660168379256e+01
8.238279479314842320e+03 5.623413251903490817e+01
1.000000000000000000e+04 1.000000000000000000e+02
1.000000000000000000e+04 1.778279410038922776e+02
1.000000000000000000e+04 3.162277660168379612e+02
