# Temperature (K), Pressure (bars)
9.707489838320906301e+02 3.162277660168379530e-05
1.006088891476170716e+03 5.623413251903490700e-05
1.041428799700294803e+03 1.000000000000000048e-04
1.079890998915624095e+03 1.778279410038922698e-04
1.139570098683323067e+03 3.162277660168379394e-04
1.228616267631885876e+03 5.623413251903490971e-04
1.338416392004166028e+03 1.000000000000000021e-03
1.474434468245650578e+03 1.778279410038922752e-03
1.596727286400690218e+03 3.162277660168379394e-03
1.670300686434973386e+03 5.623413251903490971e-03
1.716789662134114451e+03 1.000000000000000021e-02
1.758934604074100207e+03 1.778279410038922925e-02
1.808659476894790942e+03 3.162277660168379134e-02
1.865383674199249981e+03 5.623413251903491145e-02
1.926216046136460591e+03 1.000000000000000056e-01
2.003486927588964818e+03 1.778279410038922925e-01
2.095915610883835143e+03 3.162277660168379412e-01
2.233734954151476359e+03 5.623413251903490728e-01
2.460481119484877127e+03 1.000000000000000000e+00
2.713759992777960179e+03 1.778279410038922759e+00
2.946191006462789574e+03 3.162277660168379523e+00
3.176913110969236641e+03 5.623413251903491172e+00
3.412743219187068917e+03 1.000000000000000000e+01
3.659723655917741326e+03 1.778279410038922848e+01
3.925735102629421817e+03 3.162277660168379256e+01
4.216458410074463245e+03 5.623413251903490817e+01
4.538817481939966456e+03 1.000000000000000000e+02
4.895992615032318099e+03 1.778279410038922776e+02
5.307717542371143281e+03 3.162277660168379612e+02
