# Temperature (K), Pressure (bars)
9.877055909935090767e+02 9.999999999999999547e-07
1.032478088696542727e+03 1.778279410038922901e-06
1.077250586399931763e+03 3.162277660168379191e-06
1.123848216251474696e+03 5.623413251903491208e-06
1.172365818197768021e+03 1.000000000000000082e-05
1.223685285785720225e+03 1.778279410038922901e-05
1.277738309462145480e+03 3.162277660168379530e-05
1.334866184392748664e+03 5.623413251903490700e-05
1.397257133370185784e+03 1.000000000000000048e-04
1.466741034684813030e+03 1.778279410038922698e-04
1.548014009304831688e+03 3.162277660168379394e-04
1.644519151525027837e+03 5.623413251903490971e-04
1.761501145224195625e+03 1.000000000000000021e-03
1.915011530039689660e+03 1.778279410038922752e-03
2.099447978067891199e+03 3.162277660168379394e-03
2.285622199602812998e+03 5.623413251903490971e-03
2.462510541348008246e+03 1.000000000000000021e-02
2.634820686679987375e+03 1.778279410038922925e-02
2.806583207821513497e+03 3.162277660168379134e-02
2.981139483495544482e+03 5.623413251903491145e-02
3.161281876903247849e+03 1.000000000000000056e-01
3.349515205821111067e+03 1.778279410038922925e-01
3.549454464322011972e+03 3.162277660168379412e-01
3.767053403571438139e+03 5.623413251903490728e-01
4.010813394067226909e+03 1.000000000000000000e+00
4.292537613388049067e+03 1.778279410038922759e+00
4.621259145788133537e+03 3.162277660168379523e+00
5.035377806595372931e+03 5.623413251903491172e+00
5.591978815663964269e+03 1.000000000000000000e+01
6.394399107422759698e+03 1.778279410038922848e+01
7.587139838236613286e+03 3.162277660168379256e+01
9.263199790891852899e+03 5.623413251903490817e+01
1.130171318715962843e+04 1.000000000000000000e+02
1.375665783823704805e+04 1.778279410038922776e+02
1.668280417211708846e+04 3.162277660168379612e+02
