# Temperature (K), Pressure (bars)
9.029927658327941344e+02 1.000000000000000048e-04
9.461294186365914811e+02 1.778279410038922698e-04
9.892660712409998496e+02 3.162277660168379394e-04
1.032167022662555610e+03 5.623413251903490971e-04
1.073806112534893600e+03 1.000000000000000021e-03
1.112971496994045538e+03 1.778279410038922752e-03
1.149675552573021832e+03 3.162277660168379394e-03
1.186787076773884564e+03 5.623413251903490971e-03
1.229825080386425725e+03 1.000000000000000021e-02
1.283052807249057423e+03 1.778279410038922925e-02
1.340487681193666958e+03 3.162277660168379134e-02
1.398393909220057139e+03 5.623413251903491145e-02
1.462761535332235781e+03 1.000000000000000056e-01
1.527345177291372011e+03 1.778279410038922925e-01
1.645167649167599166e+03 3.162277660168379412e-01
1.876539053462946640e+03 5.623413251903490728e-01
2.157619291239430822e+03 1.000000000000000000e+00
2.428868917546323701e+03 1.778279410038922759e+00
2.690284346543875472e+03 3.162277660168379523e+00
2.941653200574940456e+03 5.623413251903491172e+00
3.189379716451453078e+03 1.000000000000000000e+01
3.441585261661834465e+03 1.778279410038922848e+01
3.707829533628095305e+03 3.162277660168379256e+01
3.993489613286859822e+03 5.623413251903490817e+01
4.305293175513165806e+03 1.000000000000000000e+02
4.646442649692604391e+03 1.778279410038922776e+02
5.034207682192006359e+03 3.162277660168379612e+02
