# Temperature (K), Pressure (bars)
9.586996695985378665e+02 5.623413251903490971e-04
1.014597791473791972e+03 1.000000000000000021e-03
1.070495914797555542e+03 1.778279410038922752e-03
1.124772555132564776e+03 3.162277660168379394e-03
1.178035974498568294e+03 5.623413251903490971e-03
1.232013909515672594e+03 1.000000000000000021e-02
1.288364613428474740e+03 1.778279410038922925e-02
1.350713146207645423e+03 3.162277660168379134e-02
1.424406387001405847e+03 5.623413251903491145e-02
1.518910891327248919e+03 1.000000000000000056e-01
1.653036561551198474e+03 1.778279410038922925e-01
1.837406578649790845e+03 3.162277660168379412e-01
2.070082134912614947e+03 5.623413251903490728e-01
2.334018981879669809e+03 1.000000000000000000e+00
2.593465163854640195e+03 1.778279410038922759e+00
2.836602962673606726e+03 3.162277660168379523e+00
3.074506284664950272e+03 5.623413251903491172e+00
3.314246397558913031e+03 1.000000000000000000e+01
3.562547724104280860e+03 1.778279410038922848e+01
3.827762267574794805e+03 3.162277660168379256e+01
4.115354736953041538e+03 5.623413251903490817e+01
4.432052363640977092e+03 1.000000000000000000e+02
4.780966036120424178e+03 1.778279410038922776e+02
5.180844862840199312e+03 3.162277660168379612e+02
