# Temperature (K), Pressure (bars)
2.359509252736036160e+03 9.999999999999999547e-07
2.384106745895436234e+03 1.778279410038922901e-06
2.408704239054836762e+03 3.162277660168379191e-06
2.439408040317211544e+03 5.623413251903491208e-06
2.473826807199681753e+03 1.000000000000000082e-05
2.510160790933675798e+03 1.778279410038922901e-05
2.548890525773997069e+03 3.162277660168379530e-05
2.590145589406106865e+03 5.623413251903490700e-05
2.633838606539785815e+03 1.000000000000000048e-04
2.678751127378246110e+03 1.778279410038922698e-04
2.722818829849129543e+03 3.162277660168379394e-04
2.763742599519291161e+03 5.623413251903490971e-04
2.799706418067838513e+03 1.000000000000000021e-03
2.831066750585524005e+03 1.778279410038922752e-03
2.861196369260827851e+03 3.162277660168379394e-03
2.896405889430309344e+03 5.623413251903490971e-03
2.942006573223571650e+03 1.000000000000000021e-02
3.003907609121707083e+03 1.778279410038922925e-02
3.081927145928938444e+03 3.162277660168379134e-02
3.186292031720648538e+03 5.623413251903491145e-02
3.336458604073545303e+03 1.000000000000000056e-01
3.522501470405332384e+03 1.778279410038922925e-01
3.739320193535783346e+03 3.162277660168379412e-01
4.006354879062034797e+03 5.623413251903490728e-01
4.301342395041973759e+03 1.000000000000000000e+00
4.679138019400184021e+03 1.778279410038922759e+00
5.206586807838766617e+03 3.162277660168379523e+00
6.015181915888922958e+03 5.623413251903491172e+00
7.273556493766835956e+03 1.000000000000000000e+01
8.942328043760238870e+03 1.778279410038922848e+01
1.000000000000000000e+04 3.162277660168379256e+01
1.000000000000000000e+04 5.623413251903490817e+01
1.000000000000000000e+04 1.000000000000000000e+02
1.000000000000000000e+04 1.778279410038922776e+02
1.000000000000000000e+04 3.162277660168379612e+02
