# Temperature (K), Pressure (bars)
1.018231808742635508e+03 1.000000000000000021e-03
1.056531617983911246e+03 1.778279410038922752e-03
1.094831426640454538e+03 3.162277660168379394e-03
1.124847887886750868e+03 5.623413251903490971e-03
1.146892793023066588e+03 1.000000000000000021e-02
1.165774291410574961e+03 1.778279410038922925e-02
1.186851832455620979e+03 3.162277660168379134e-02
1.214607707180558009e+03 5.623413251903491145e-02
1.251188309106604493e+03 1.000000000000000056e-01
1.298199342616498143e+03 1.778279410038922925e-01
1.361971586181234215e+03 3.162277660168379412e-01
1.444593928819271923e+03 5.623413251903490728e-01
1.551333966999434551e+03 1.000000000000000000e+00
1.688547530285262383e+03 1.778279410038922759e+00
1.877980318504294019e+03 3.162277660168379523e+00
2.143164156726643341e+03 5.623413251903491172e+00
2.444650198248662036e+03 1.000000000000000000e+01
2.744909009019436780e+03 1.778279410038922848e+01
3.047253714040166869e+03 3.162277660168379256e+01
3.351371233353008847e+03 5.623413251903490817e+01
3.664042803318909137e+03 1.000000000000000000e+02
3.990166967276411469e+03 1.778279410038922776e+02
4.344660012636902138e+03 3.162277660168379612e+02
