# Temperature (K), Pressure (bars)
2.046657854631858982e+03 1.000000000000000082e-05
2.048571517922216117e+03 1.778279410038922901e-05
2.050773629347671886e+03 3.162277660168379530e-05
2.062769725652497982e+03 5.623413251903490700e-05
2.085665884237011596e+03 1.000000000000000048e-04
2.119142396230742634e+03 1.778279410038922698e-04
2.164098294010369500e+03 3.162277660168379394e-04
2.217936016222997750e+03 5.623413251903490971e-04
2.278000238779614847e+03 1.000000000000000021e-03
2.342496240153398048e+03 1.778279410038922752e-03
2.407377891452649237e+03 3.162277660168379394e-03
2.469338007152558930e+03 5.623413251903490971e-03
2.525247701902691006e+03 1.000000000000000021e-02
2.576749965795596836e+03 1.778279410038922925e-02
2.628149969156320367e+03 3.162277660168379134e-02
2.693278949488377293e+03 5.623413251903491145e-02
2.796402413604485446e+03 1.000000000000000056e-01
2.934208977258730556e+03 1.778279410038922925e-01
3.087238029226653452e+03 3.162277660168379412e-01
3.252889721144540999e+03 5.623413251903490728e-01
3.435582582998073576e+03 1.000000000000000000e+00
3.637842276180584122e+03 1.778279410038922759e+00
3.861155617798763160e+03 3.162277660168379523e+00
4.108013719861864956e+03 5.623413251903491172e+00
4.383620532031578477e+03 1.000000000000000000e+01
4.696331120265958816e+03 1.778279410038922848e+01
5.058638963914188935e+03 3.162277660168379256e+01
5.488074852791765807e+03 5.623413251903490817e+01
6.009073800292941996e+03 1.000000000000000000e+02
6.660547933412050043e+03 1.778279410038922776e+02
7.504413134573911520e+03 3.162277660168379612e+02
