# Temperature (K), Pressure (bars)
1.364905612814656479e+03 1.778279410038922901e-06
1.383813850395118607e+03 3.162277660168379191e-06
1.409587495552205382e+03 5.623413251903491208e-06
1.442711208108066785e+03 1.000000000000000082e-05
1.487364724684548946e+03 1.778279410038922901e-05
1.545883851232407778e+03 3.162277660168379530e-05
1.608127451830258451e+03 5.623413251903490700e-05
1.668685700182192022e+03 1.000000000000000048e-04
1.732435544588695393e+03 1.778279410038922698e-04
1.801086688345268612e+03 3.162277660168379394e-04
1.874249506770326207e+03 5.623413251903490971e-04
1.952329725343092377e+03 1.000000000000000021e-03
2.041532557774034558e+03 1.778279410038922752e-03
2.153132635597208264e+03 3.162277660168379394e-03
2.283190674087723892e+03 5.623413251903490971e-03
2.419527865358434610e+03 1.000000000000000021e-02
2.559479698484130495e+03 1.778279410038922925e-02
2.704813615923827001e+03 3.162277660168379134e-02
2.857393076752535308e+03 5.623413251903491145e-02
3.019261082857091424e+03 1.000000000000000056e-01
3.192530825867074327e+03 1.778279410038922925e-01
3.378791247036747336e+03 3.162277660168379412e-01
3.579400361931573570e+03 5.623413251903490728e-01
3.797355395416087958e+03 1.000000000000000000e+00
4.038552932552738639e+03 1.778279410038922759e+00
4.311876342606170510e+03 3.162277660168379523e+00
4.629976142787090794e+03 5.623413251903491172e+00
5.007721657533721555e+03 1.000000000000000000e+01
5.480849386537764985e+03 1.778279410038922848e+01
6.105429876499105376e+03 3.162277660168379256e+01
6.986714381831756327e+03 5.623413251903490817e+01
8.279754869690774285e+03 1.000000000000000000e+02
1.004481091765340898e+04 1.778279410038922776e+02
1.218612429888519364e+04 3.162277660168379612e+02
