# Temperature (K), Pressure (bars)
1.191498807906257525e+03 9.999999999999999547e-07
1.257430032055697438e+03 1.778279410038922901e-06
1.323361256205138034e+03 3.162277660168379191e-06
1.377871704512766428e+03 5.623413251903491208e-06
1.430208095273145318e+03 1.000000000000000082e-05
1.496392603057039651e+03 1.778279410038922901e-05
1.572978588442205137e+03 3.162277660168379530e-05
1.644303618364150225e+03 5.623413251903490700e-05
1.706761247697309955e+03 1.000000000000000048e-04
1.766920735806016637e+03 1.778279410038922698e-04
1.830165182501508298e+03 3.162277660168379394e-04
1.897050533567869252e+03 5.623413251903490971e-04
1.968247167422212442e+03 1.000000000000000021e-03
2.049051932127009422e+03 1.778279410038922752e-03
2.150455894355544388e+03 3.162277660168379394e-03
2.275754554311604807e+03 5.623413251903490971e-03
2.412791890524783412e+03 1.000000000000000021e-02
2.554332270075988163e+03 1.778279410038922925e-02
2.701987711386084356e+03 3.162277660168379134e-02
2.857575345217357608e+03 5.623413251903491145e-02
3.023123256124393265e+03 1.000000000000000056e-01
3.200049417552823797e+03 1.778279410038922925e-01
3.388789994489471610e+03 3.162277660168379412e-01
3.590574343141443023e+03 5.623413251903490728e-01
3.809372510950211563e+03 1.000000000000000000e+00
4.051828098489731929e+03 1.778279410038922759e+00
4.327173436327599120e+03 3.162277660168379523e+00
4.648551364360057050e+03 5.623413251903491172e+00
5.032153663629695984e+03 1.000000000000000000e+01
5.514219946115647872e+03 1.778279410038922848e+01
6.152531510260104369e+03 3.162277660168379256e+01
7.055795644343195818e+03 5.623413251903490817e+01
8.383053297070269764e+03 1.000000000000000000e+02
1.000000000000000000e+04 1.778279410038922776e+02
1.000000000000000000e+04 3.162277660168379612e+02
