# Temperature (K), Pressure (bars)
1.436692755014941440e+03 9.999999999999999547e-07
1.466505905703713097e+03 1.778279410038922901e-06
1.496319056392523862e+03 3.162277660168379191e-06
1.537781447610085024e+03 5.623413251903491208e-06
1.581976654766956472e+03 1.000000000000000082e-05
1.625253750116976789e+03 1.778279410038922901e-05
1.672217362062734992e+03 3.162277660168379530e-05
1.724347892164167206e+03 5.623413251903490700e-05
1.779991528647792620e+03 1.000000000000000048e-04
1.839866106728631166e+03 1.778279410038922698e-04
1.903779108278690046e+03 3.162277660168379394e-04
1.970868179271045619e+03 5.623413251903490971e-04
2.042188608195549932e+03 1.000000000000000021e-03
2.122103782138930910e+03 1.778279410038922752e-03
2.220603063401716099e+03 3.162277660168379394e-03
2.337733684277078282e+03 5.623413251903490971e-03
2.464020164190351352e+03 1.000000000000000021e-02
2.596092579530183684e+03 1.778279410038922925e-02
2.735257935046453440e+03 3.162277660168379134e-02
2.883088103147172205e+03 5.623413251903491145e-02
3.041551330388946553e+03 1.000000000000000056e-01
3.212941500713886398e+03 1.778279410038922925e-01
3.399286306482579221e+03 3.162277660168379412e-01
3.602151966583201101e+03 5.623413251903490728e-01
3.824211905075398136e+03 1.000000000000000000e+00
4.071145117083608966e+03 1.778279410038922759e+00
4.352161680942666862e+03 3.162277660168379523e+00
4.674117447908522990e+03 5.623413251903491172e+00
5.065710358406013256e+03 1.000000000000000000e+01
5.561802188723720974e+03 1.778279410038922848e+01
6.224416809244300566e+03 3.162277660168379256e+01
7.164553138264650443e+03 5.623413251903490817e+01
8.545768808769280440e+03 1.000000000000000000e+02
1.038188412737728504e+04 1.778279410038922776e+02
1.259324282296230740e+04 3.162277660168379612e+02
