# Temperature (K), Pressure (bars)
1.875356955529792231e+03 1.000000000000000082e-05
1.880538663273887323e+03 1.778279410038922901e-05
1.885720374406584369e+03 3.162277660168379530e-05
1.902292704382260581e+03 5.623413251903490700e-05
1.927403328787948794e+03 1.000000000000000048e-04
1.958108548686761651e+03 1.778279410038922698e-04
1.995998312911774519e+03 3.162277660168379394e-04
2.040822677342095403e+03 5.623413251903490971e-04
2.088222189611547037e+03 1.000000000000000021e-03
2.134364113944511246e+03 1.778279410038922752e-03
2.177840864187457100e+03 3.162277660168379394e-03
2.216970835973484554e+03 5.623413251903490971e-03
2.251205036096246204e+03 1.000000000000000021e-02
2.281573181034827485e+03 1.778279410038922925e-02
2.312425777728719368e+03 3.162277660168379134e-02
2.348191534151353608e+03 5.623413251903491145e-02
2.400719062061616569e+03 1.000000000000000056e-01
2.465051463996629082e+03 1.778279410038922925e-01
2.566780200678170786e+03 3.162277660168379412e-01
2.748174030705664791e+03 5.623413251903490728e-01
2.954624629237392128e+03 1.000000000000000000e+00
3.149375556514246455e+03 1.778279410038922759e+00
3.353885738551075974e+03 3.162277660168379523e+00
3.572132554466025795e+03 5.623413251903491172e+00
3.806750314793297548e+03 1.000000000000000000e+01
4.062027830838878344e+03 1.778279410038922848e+01
4.345011334064034600e+03 3.162277660168379256e+01
4.662936104457168767e+03 5.623413251903490817e+01
5.024689553627795249e+03 1.000000000000000000e+02
5.434485259448336365e+03 1.778279410038922776e+02
5.921023205097113532e+03 3.162277660168379612e+02
