# Temperature (K), Pressure (bars)
1.105286913468886723e+03 3.162277660168379394e-04
1.137686938867617300e+03 5.623413251903490971e-04
1.170086964359795957e+03 1.000000000000000021e-03
1.201114302369212282e+03 1.778279410038922752e-03
1.229475696249849307e+03 3.162277660168379394e-03
1.264957294202326693e+03 5.623413251903490971e-03
1.326374932229302885e+03 1.000000000000000021e-02
1.401895425316771480e+03 1.778279410038922925e-02
1.493245428242429625e+03 3.162277660168379134e-02
1.613559776341196311e+03 5.623413251903491145e-02
1.726414834939182583e+03 1.000000000000000056e-01
1.817733357566532504e+03 1.778279410038922925e-01
1.913896125569365040e+03 3.162277660168379412e-01
2.019082916928169652e+03 5.623413251903490728e-01
2.170100129714506693e+03 1.000000000000000000e+00
2.414232238571484231e+03 1.778279410038922759e+00
2.688386298724562494e+03 3.162277660168379523e+00
2.941321647313610811e+03 5.623413251903491172e+00
3.190713707255365080e+03 1.000000000000000000e+01
3.444414206515391925e+03 1.778279410038922848e+01
3.710979984817133300e+03 3.162277660168379256e+01
3.996774263246396913e+03 5.623413251903490817e+01
4.308758560770434087e+03 1.000000000000000000e+02
4.650043460611757837e+03 1.778279410038922776e+02
5.038304747699796280e+03 3.162277660168379612e+02
