# Temperature (K), Pressure (bars)
1.288742936593872855e+03 9.999999999999999547e-07
1.296004501280461909e+03 1.778279410038922901e-06
1.303266065974504272e+03 3.162277660168379191e-06
1.317029915857353899e+03 5.623413251903491208e-06
1.337148740231502416e+03 1.000000000000000082e-05
1.362539561699699789e+03 1.778279410038922901e-05
1.394752021300087790e+03 3.162277660168379530e-05
1.433582433343376124e+03 5.623413251903490700e-05
1.484380059958888978e+03 1.000000000000000048e-04
1.551858741155318057e+03 1.778279410038922698e-04
1.621932229516014786e+03 3.162277660168379394e-04
1.684240713030299503e+03 5.623413251903490971e-04
1.745236140367172084e+03 1.000000000000000021e-03
1.810576075105291466e+03 1.778279410038922752e-03
1.878892800330726004e+03 3.162277660168379394e-03
1.952832426001305521e+03 5.623413251903490971e-03
2.034334495149873874e+03 1.000000000000000021e-02
2.135502088889764764e+03 1.778279410038922925e-02
2.275262417992404153e+03 3.162277660168379134e-02
2.436492536410568391e+03 5.623413251903491145e-02
2.597918649556041146e+03 1.000000000000000056e-01
2.761099723448951408e+03 1.778279410038922925e-01
2.929500837282813336e+03 3.162277660168379412e-01
3.105908184748754138e+03 5.623413251903490728e-01
3.292028759131302650e+03 1.000000000000000000e+00
3.489263220419832123e+03 1.778279410038922759e+00
3.700302951555622258e+03 3.162277660168379523e+00
3.929485573247839056e+03 5.623413251903491172e+00
4.182248754406913577e+03 1.000000000000000000e+01
4.465186264143012522e+03 1.778279410038922848e+01
4.786948603730981631e+03 3.162277660168379256e+01
5.162607782080423021e+03 5.623413251903490817e+01
5.604687159780472939e+03 1.000000000000000000e+02
6.135488779963212437e+03 1.778279410038922776e+02
6.788613485434018912e+03 3.162277660168379612e+02
