# Temperature (K), Pressure (bars)
9.303816766686499022e+02 3.162277660168379530e-05
9.872745154473645925e+02 5.623413251903490700e-05
1.044167353178271469e+03 1.000000000000000048e-04
1.095223383583786472e+03 1.778279410038922698e-04
1.137431973728897219e+03 3.162277660168379394e-04
1.170838856639119967e+03 5.623413251903490971e-04
1.198902753306015256e+03 1.000000000000000021e-03
1.225398133893075283e+03 1.778279410038922752e-03
1.252896992204711069e+03 3.162277660168379394e-03
1.279525944067587943e+03 5.623413251903490971e-03
1.309246912812495566e+03 1.000000000000000021e-02
1.365205786931568355e+03 1.778279410038922925e-02
1.460663849433513178e+03 3.162277660168379134e-02
1.579279372362309005e+03 5.623413251903491145e-02
1.711443968289839404e+03 1.000000000000000056e-01
1.853953121014669932e+03 1.778279410038922925e-01
2.009268388697772934e+03 3.162277660168379412e-01
2.213780208810463591e+03 5.623413251903490728e-01
2.464506347804696361e+03 1.000000000000000000e+00
2.711906468750295062e+03 1.778279410038922759e+00
2.944657966561461762e+03 3.162277660168379523e+00
3.175031871730000148e+03 5.623413251903491172e+00
3.410018428041036259e+03 1.000000000000000000e+01
3.656282703639502415e+03 1.778279410038922848e+01
3.922042553236598451e+03 3.162277660168379256e+01
4.212517162330727842e+03 5.623413251903490817e+01
4.534524299020338731e+03 1.000000000000000000e+02
4.891117204499781110e+03 1.778279410038922776e+02
5.302247519816558452e+03 3.162277660168379612e+02
