# Temperature (K), Pressure (bars)
8.417064078098586606e+02 9.999999999999999547e-07
8.550753133359103231e+02 1.778279410038922901e-06
8.684442188747391356e+02 3.162277660168379191e-06
8.866946933595354494e+02 5.623413251903491208e-06
9.112439961036425302e+02 1.000000000000000082e-05
9.397197844450211051e+02 1.778279410038922901e-05
9.712839523787213238e+02 3.162277660168379530e-05
1.006901556885344462e+03 5.623413251903490700e-05
1.046249491105756078e+03 1.000000000000000048e-04
1.089263647592128109e+03 1.778279410038922698e-04
1.136026129400563150e+03 3.162277660168379394e-04
1.186260060024536415e+03 5.623413251903490971e-04
1.239976242774718003e+03 1.000000000000000021e-03
1.297315736432031827e+03 1.778279410038922752e-03
1.360180357889285006e+03 3.162277660168379394e-03
1.432581754001612353e+03 5.623413251903490971e-03
1.522817024445545485e+03 1.000000000000000021e-02
1.638071627568129770e+03 1.778279410038922925e-02
1.798777353372528978e+03 3.162277660168379134e-02
2.014794733443102359e+03 5.623413251903491145e-02
2.243965205835863344e+03 1.000000000000000056e-01
2.455081591105938060e+03 1.778279410038922925e-01
2.653197286360763428e+03 3.162277660168379412e-01
2.845084515733778971e+03 5.623413251903490728e-01
3.036264171104325214e+03 1.000000000000000000e+00
3.231078917587630258e+03 1.778279410038922759e+00
3.433965248577702368e+03 3.162277660168379523e+00
3.649672073851142159e+03 5.623413251903491172e+00
3.883052152776064304e+03 1.000000000000000000e+01
4.139291462929717454e+03 1.778279410038922848e+01
4.424473790627220296e+03 3.162277660168379256e+01
4.746520014176684526e+03 5.623413251903490817e+01
5.120084449898969069e+03 1.000000000000000000e+02
5.553766879435585906e+03 1.778279410038922776e+02
6.065266305651349285e+03 3.162277660168379612e+02
