# Temperature (K), Pressure (bars)
1.547193476105080208e+03 9.999999999999999547e-07
1.593747618232081095e+03 1.778279410038922901e-06
1.640301760359098807e+03 3.162277660168379191e-06
1.688725294928608719e+03 5.623413251903491208e-06
1.739501499374193600e+03 1.000000000000000082e-05
1.789103218675069911e+03 1.778279410038922901e-05
1.837446972780667920e+03 3.162277660168379530e-05
1.885487745117465693e+03 5.623413251903490700e-05
1.933419149574311177e+03 1.000000000000000048e-04
1.982947252079657119e+03 1.778279410038922698e-04
2.035563047710938235e+03 3.162277660168379394e-04
2.092576725666881430e+03 5.623413251903490971e-04
2.154922195608896800e+03 1.000000000000000021e-03
2.227037808953354215e+03 1.778279410038922752e-03
2.317429786168878309e+03 3.162277660168379394e-03
2.425798252420473545e+03 5.623413251903490971e-03
2.544794650983600604e+03 1.000000000000000021e-02
2.671963340810545560e+03 1.778279410038922925e-02
2.808491589621735784e+03 3.162277660168379134e-02
2.956394887453860065e+03 5.623413251903491145e-02
3.118318707278311194e+03 1.000000000000000056e-01
3.296789157383454040e+03 1.778279410038922925e-01
3.493435386454877062e+03 3.162277660168379412e-01
3.709980991968875060e+03 5.623413251903490728e-01
3.950865851170372480e+03 1.000000000000000000e+00
4.225144215827644075e+03 1.778279410038922759e+00
4.533881345539790345e+03 3.162277660168379523e+00
4.913696213288236322e+03 5.623413251903491172e+00
5.405033868447666464e+03 1.000000000000000000e+01
6.082477359306039943e+03 1.778279410038922848e+01
7.080466254003450558e+03 3.162277660168379256e+01
8.557244863612637346e+03 5.623413251903490817e+01
1.044785093191744636e+04 1.000000000000000000e+02
1.271770006199330055e+04 1.778279410038922776e+02
1.542532728742576910e+04 3.162277660168379612e+02
