# Temperature (K), Pressure (bars)
9.739787420205525450e+02 3.162277660168379530e-05
1.017808831213945950e+03 5.623413251903490700e-05
1.061638920231835527e+03 1.000000000000000048e-04
1.095094275641513832e+03 1.778279410038922698e-04
1.124591942463031273e+03 3.162277660168379394e-04
1.152407434625712312e+03 5.623413251903490971e-04
1.185754970796055659e+03 1.000000000000000021e-03
1.250093263105666892e+03 1.778279410038922752e-03
1.336154767667671194e+03 3.162277660168379394e-03
1.433609638444852408e+03 5.623413251903490971e-03
1.554666184977843386e+03 1.000000000000000021e-02
1.659771387732183257e+03 1.778279410038922925e-02
1.735698408347519944e+03 3.162277660168379134e-02
1.816494633744875046e+03 5.623413251903491145e-02
1.910410066980513420e+03 1.000000000000000056e-01
2.010876945291750872e+03 1.778279410038922925e-01
2.154478131453451169e+03 3.162277660168379412e-01
2.382041426576434333e+03 5.623413251903490728e-01
2.630281728875002045e+03 1.000000000000000000e+00
2.854481215052473090e+03 1.778279410038922759e+00
3.074779079962602282e+03 3.162277660168379523e+00
3.297724612022529527e+03 5.623413251903491172e+00
3.529117333528404743e+03 1.000000000000000000e+01
3.775016564631469464e+03 1.778279410038922848e+01
4.043319541579630368e+03 3.162277660168379256e+01
4.339197872757207733e+03 5.623413251903490817e+01
4.669804839112541231e+03 1.000000000000000000e+02
5.038397838611115731e+03 1.778279410038922776e+02
5.466595031366804506e+03 3.162277660168379612e+02
