# Temperature (K), Pressure (bars)
2.310161762644751889e+03 9.999999999999999547e-07
2.336487770082827865e+03 1.778279410038922901e-06
2.362813777520904750e+03 3.162277660168379191e-06
2.388123339720301828e+03 5.623413251903491208e-06
2.418165506475758320e+03 1.000000000000000082e-05
2.453487337232094887e+03 1.778279410038922901e-05
2.490373266545100705e+03 3.162277660168379530e-05
2.529538821595011541e+03 5.623413251903490700e-05
2.570992491324829189e+03 1.000000000000000048e-04
2.614315590831348800e+03 1.778279410038922698e-04
2.658995271185302954e+03 3.162277660168379394e-04
2.702388333299586520e+03 5.623413251903490971e-04
2.740868486877386658e+03 1.000000000000000021e-03
2.772429857347237430e+03 1.778279410038922752e-03
2.801306830753081158e+03 3.162277660168379394e-03
2.838511898440360255e+03 5.623413251903490971e-03
2.888826291882198802e+03 1.000000000000000021e-02
2.952305993059655520e+03 1.778279410038922925e-02
3.012624445817447850e+03 3.162277660168379134e-02
3.087404536278769228e+03 5.623413251903491145e-02
3.226675529734725842e+03 1.000000000000000056e-01
3.406380391021293690e+03 1.778279410038922925e-01
3.603037133550706585e+03 3.162277660168379412e-01
3.835763652834357799e+03 5.623413251903490728e-01
4.117787115470937351e+03 1.000000000000000000e+00
4.419797872571762127e+03 1.778279410038922759e+00
4.799324318789651443e+03 3.162277660168379523e+00
5.311226847391688352e+03 5.623413251903491172e+00
6.073135748034057542e+03 1.000000000000000000e+01
7.261553044133311232e+03 1.778279410038922848e+01
8.903978962265975497e+03 3.162277660168379256e+01
1.000000000000000000e+04 5.623413251903490817e+01
1.000000000000000000e+04 1.000000000000000000e+02
1.000000000000000000e+04 1.778279410038922776e+02
1.000000000000000000e+04 3.162277660168379612e+02
