# Temperature (K), Pressure (bars)
1.989224357785599750e+03 9.999999999999999547e-07
2.014646134989558504e+03 1.778279410038922901e-06
2.040067912193517031e+03 3.162277660168379191e-06
2.070094505206467602e+03 5.623413251903491208e-06
2.104317945119579235e+03 1.000000000000000082e-05
2.139610543724846139e+03 1.778279410038922901e-05
2.173708177134315974e+03 3.162277660168379530e-05
2.205357628732872399e+03 5.623413251903490700e-05
2.235503940811722259e+03 1.000000000000000048e-04
2.266977823678189452e+03 1.778279410038922698e-04
2.302492579508439121e+03 3.162277660168379394e-04
2.343669749308562132e+03 5.623413251903490971e-04
2.392289049031428476e+03 1.000000000000000021e-03
2.449536954804218112e+03 1.778279410038922752e-03
2.519668675618607722e+03 3.162277660168379394e-03
2.609847776310150948e+03 5.623413251903490971e-03
2.718214862785437163e+03 1.000000000000000021e-02
2.839289076660325009e+03 1.778279410038922925e-02
2.973051400851903963e+03 3.162277660168379134e-02
3.122080187447635126e+03 5.623413251903491145e-02
3.290737987436336880e+03 1.000000000000000056e-01
3.487329988230894742e+03 1.778279410038922925e-01
3.693675548847648315e+03 3.162277660168379412e-01
3.933424940596051783e+03 5.623413251903490728e-01
4.218045782611046889e+03 1.000000000000000000e+00
4.556338341419891549e+03 1.778279410038922759e+00
5.004047245174014279e+03 3.162277660168379523e+00
5.649842695862990695e+03 5.623413251903491172e+00
6.640713077835467629e+03 1.000000000000000000e+01
8.114972146082770450e+03 1.778279410038922848e+01
9.920024139274031768e+03 3.162277660168379256e+01
1.000000000000000000e+04 5.623413251903490817e+01
1.000000000000000000e+04 1.000000000000000000e+02
1.000000000000000000e+04 1.778279410038922776e+02
1.000000000000000000e+04 3.162277660168379612e+02
