# Temperature (K), Pressure (bars)
9.337347335112160636e+02 5.623413251903490971e-04
9.806497472895192686e+02 1.000000000000000021e-03
1.027564763152283604e+03 1.778279410038922752e-03
1.074414480435370706e+03 3.162277660168379394e-03
1.122174250593438273e+03 5.623413251903490971e-03
1.170939128258126402e+03 1.000000000000000021e-02
1.221097303904391538e+03 1.778279410038922925e-02
1.273433385518732621e+03 3.162277660168379134e-02
1.331097559440007672e+03 5.623413251903491145e-02
1.398457230640969328e+03 1.000000000000000056e-01
1.484291364968408061e+03 1.778279410038922925e-01
1.605267854112939858e+03 3.162277660168379412e-01
1.765641823295182576e+03 5.623413251903490728e-01
1.966941934863495135e+03 1.000000000000000000e+00
2.216749683890112010e+03 1.778279410038922759e+00
2.492894705698758116e+03 3.162277660168379523e+00
2.764190801873588953e+03 5.623413251903491172e+00
3.026984012116509803e+03 1.000000000000000000e+01
3.289339581419827482e+03 1.778279410038922848e+01
3.560121442091843164e+03 3.162277660168379256e+01
3.845987385567375441e+03 5.623413251903490817e+01
4.154165859667009499e+03 1.000000000000000000e+02
4.488481772359016759e+03 1.778279410038922776e+02
4.864949134805596259e+03 3.162277660168379612e+02
