# Temperature (K), Pressure (bars)
3.054316889960897970e+04 3.162277660168379530e-05
3.331926069290396117e+04 5.623413251903490700e-05
3.571848242977612244e+04 1.000000000000000048e-04
3.784222763300557563e+04 1.778279410038922698e-04
3.979903539266979351e+04 3.162277660168379394e-04
4.168370296568210324e+04 5.623413251903490971e-04
4.356600059218137903e+04 1.000000000000000021e-03
4.550301770239096368e+04 1.778279410038922752e-03
4.754538415463991259e+04 3.162277660168379394e-03
4.974570803250711469e+04 5.623413251903490971e-03
5.216338083413166896e+04 1.000000000000000021e-02
5.487382325188624236e+04 1.778279410038922925e-02
5.797473087235417916e+04 3.162277660168379134e-02
6.159195900469355547e+04 5.623413251903491145e-02
6.589009177927032579e+04 1.000000000000000056e-01
7.108429866125968692e+04 1.778279410038922925e-01
7.746055905825948867e+04 3.162277660168379412e-01
8.538815823325820384e+04 5.623413251903490728e-01
9.533492559052555589e+04 1.000000000000000000e+00
1.079049915598030930e+05 1.778279410038922759e+00
1.238457926195541513e+05 3.162277660168379523e+00
1.441020851919125416e+05 5.623413251903491172e+00
1.698261528547296184e+05 1.000000000000000000e+01
2.024295130231774529e+05 1.778279410038922848e+01
2.435787135905650794e+05 3.162277660168379256e+01
2.951810093035110040e+05 5.623413251903490817e+01
3.592085613077611779e+05 1.000000000000000000e+02
4.373440641358841676e+05 1.778279410038922776e+02
5.305670156840017298e+05 3.162277660168379612e+02
