# Temperature (K), Pressure (bars)
9.178120451923356313e+02 3.162277660168379394e-03
9.617388914150855044e+02 5.623413251903490971e-03
1.005665738666727862e+03 1.000000000000000021e-02
1.048155324731532801e+03 1.778279410038922925e-02
1.090295756787774963e+03 3.162277660168379134e-02
1.133584013456179264e+03 5.623413251903491145e-02
1.180093134469367442e+03 1.000000000000000056e-01
1.232588613623084711e+03 1.778279410038922925e-01
1.295600920667147648e+03 3.162277660168379412e-01
1.373631132117659035e+03 5.623413251903490728e-01
1.485697797274518052e+03 1.000000000000000000e+00
1.647528776747154552e+03 1.778279410038922759e+00
1.864680762122975693e+03 3.162277660168379523e+00
2.140771922962210738e+03 5.623413251903491172e+00
2.442575167283350766e+03 1.000000000000000000e+01
2.742813370451908668e+03 1.778279410038922848e+01
3.045412761109239455e+03 3.162277660168379256e+01
3.349798251912109663e+03 5.623413251903490817e+01
3.662701810220315110e+03 1.000000000000000000e+02
3.989353517974218903e+03 1.778279410038922776e+02
4.344221192897362016e+03 3.162277660168379612e+02
