# Temperature (K), Pressure (bars)
1.089828110658721016e+03 3.162277660168379394e-04
1.139826832243928266e+03 5.623413251903490971e-04
1.189825556391960390e+03 1.000000000000000021e-03
1.241448252869027101e+03 1.778279410038922752e-03
1.294991091194441879e+03 3.162277660168379394e-03
1.350758540301169205e+03 5.623413251903490971e-03
1.411694457744463080e+03 1.000000000000000021e-02
1.479832147274579711e+03 1.778279410038922925e-02
1.556345871936379353e+03 3.162277660168379134e-02
1.648788360919232446e+03 5.623413251903491145e-02
1.758907657988096162e+03 1.000000000000000056e-01
1.884647172658198997e+03 1.778279410038922925e-01
2.031856895245505939e+03 3.162277660168379412e-01
2.224799301817961805e+03 5.623413251903490728e-01
2.468892284713159370e+03 1.000000000000000000e+00
2.716353440485171177e+03 1.778279410038922759e+00
2.946839513482015263e+03 3.162277660168379523e+00
3.176424871003386670e+03 5.623413251903491172e+00
3.411777844859661855e+03 1.000000000000000000e+01
3.658610208265685287e+03 1.778279410038922848e+01
3.924499898352848959e+03 3.162277660168379256e+01
4.215073384934571550e+03 5.623413251903490817e+01
4.537218860518814836e+03 1.000000000000000000e+02
4.893896653712098669e+03 1.778279410038922776e+02
5.305263610653983051e+03 3.162277660168379612e+02
