# Temperature (K), Pressure (bars)
1.948301236191538010e+03 9.999999999999999547e-07
1.983073571386587219e+03 1.778279410038922901e-06
2.017845906581637337e+03 3.162277660168379191e-06
2.056483653946113463e+03 5.623413251903491208e-06
2.095616911642225659e+03 1.000000000000000082e-05
2.132154839586841263e+03 1.778279410038922901e-05
2.165858423701109132e+03 3.162277660168379530e-05
2.197716953937429025e+03 5.623413251903490700e-05
2.230286570787830442e+03 1.000000000000000048e-04
2.266553090128845724e+03 1.778279410038922698e-04
2.308817253153475122e+03 3.162277660168379394e-04
2.358494874366065687e+03 5.623413251903490971e-04
2.417167561617392039e+03 1.000000000000000021e-03
2.486224632015428597e+03 1.778279410038922752e-03
2.568584891392354166e+03 3.162277660168379394e-03
2.666802555351209776e+03 5.623413251903490971e-03
2.778175361542296741e+03 1.000000000000000021e-02
2.901379706382507720e+03 1.778279410038922925e-02
3.039889674964311780e+03 3.162277660168379134e-02
3.199019427909846854e+03 5.623413251903491145e-02
3.388915047772864455e+03 1.000000000000000056e-01
3.588241484737116480e+03 1.778279410038922925e-01
3.822508244736499819e+03 3.162277660168379412e-01
4.095598120595209366e+03 5.623413251903490728e-01
4.426992092263559243e+03 1.000000000000000000e+00
4.880161971525773879e+03 1.778279410038922759e+00
5.570745842402346170e+03 3.162277660168379523e+00
6.673769921490009438e+03 5.623413251903491172e+00
8.226452836338370616e+03 1.000000000000000000e+01
1.000000000000000000e+04 1.778279410038922848e+01
1.000000000000000000e+04 3.162277660168379256e+01
1.000000000000000000e+04 5.623413251903490817e+01
1.000000000000000000e+04 1.000000000000000000e+02
1.000000000000000000e+04 1.778279410038922776e+02
1.000000000000000000e+04 3.162277660168379612e+02
