# Temperature (K), Pressure (bars)
1.040078169109302053e+03 3.162277660168379530e-05
1.100036092703326631e+03 5.623413251903490700e-05
1.159994019605848962e+03 1.000000000000000048e-04
1.221418568298698574e+03 1.778279410038922698e-04
1.281585601596552351e+03 3.162277660168379394e-04
1.339962275002649449e+03 5.623413251903490971e-04
1.408371591317165667e+03 1.000000000000000021e-03
1.487371144648161817e+03 1.778279410038922752e-03
1.572603729068123812e+03 3.162277660168379394e-03
1.670788884080797970e+03 5.623413251903490971e-03
1.765909098891549320e+03 1.000000000000000021e-02
1.846315113935253976e+03 1.778279410038922925e-02
1.929189485369392287e+03 3.162277660168379134e-02
2.023361071645136008e+03 5.623413251903491145e-02
2.146056328880647015e+03 1.000000000000000056e-01
2.320210977465888845e+03 1.778279410038922925e-01
2.520554390544408307e+03 3.162277660168379412e-01
2.717516621812127596e+03 5.623413251903490728e-01
2.913149163846200736e+03 1.000000000000000000e+00
3.112457537065045472e+03 1.778279410038922759e+00
3.318947974716186764e+03 3.162277660168379523e+00
3.535974712066624306e+03 5.623413251903491172e+00
3.767814074824509589e+03 1.000000000000000000e+01
4.019694581418429152e+03 1.778279410038922848e+01
4.299405958494571678e+03 3.162277660168379256e+01
4.612951093101546576e+03 5.623413251903490817e+01
4.968762126812618590e+03 1.000000000000000000e+02
5.370929557837719585e+03 1.778279410038922776e+02
5.846214125060751940e+03 3.162277660168379612e+02
