# Temperature (K), Pressure (bars)
9.172616641085919582e+02 1.000000000000000048e-04
9.701316925006343581e+02 1.778279410038922698e-04
1.023001722817885934e+03 3.162277660168379394e-04
1.074376775075910246e+03 5.623413251903490971e-04
1.125861207894080280e+03 1.000000000000000021e-03
1.178605542387344485e+03 1.778279410038922752e-03
1.233452265844400699e+03 3.162277660168379394e-03
1.291123259616007090e+03 5.623413251903490971e-03
1.354690510817660652e+03 1.000000000000000021e-02
1.431897681631970727e+03 1.778279410038922925e-02
1.530957930233086699e+03 3.162277660168379134e-02
1.658618525291713013e+03 5.623413251903491145e-02
1.809972466479644709e+03 1.000000000000000056e-01
2.001619076243839800e+03 1.778279410038922925e-01
2.245632572313703804e+03 3.162277660168379412e-01
2.491318023632978111e+03 5.623413251903490728e-01
2.713023717538620076e+03 1.000000000000000000e+00
2.927293996500256071e+03 1.778279410038922759e+00
3.141164775813268079e+03 3.162277660168379523e+00
3.360175727518434996e+03 5.623413251903491172e+00
3.589832800946600400e+03 1.000000000000000000e+01
3.835793261415727102e+03 1.778279410038922848e+01
4.105922862634834928e+03 3.162277660168379256e+01
4.405211488770115466e+03 5.623413251903490817e+01
4.740989998238076623e+03 1.000000000000000000e+02
5.116663386473584978e+03 1.778279410038922776e+02
5.554924629235469183e+03 3.162277660168379612e+02
