# Temperature (K), Pressure (bars)
1.838180675372393807e+03 9.999999999999999547e-07
1.865776460640895493e+03 1.778279410038922901e-06
1.893372245909397861e+03 3.162277660168379191e-06
1.924811057819597181e+03 5.623413251903491208e-06
1.959756816902705850e+03 1.000000000000000082e-05
1.997925063345312765e+03 1.778279410038922901e-05
2.039697742470279309e+03 3.162277660168379530e-05
2.084459411270610417e+03 5.623413251903490700e-05
2.132485543193363355e+03 1.000000000000000048e-04
2.184766516606856385e+03 1.778279410038922698e-04
2.242526896243438387e+03 3.162277660168379394e-04
2.307526014434044555e+03 5.623413251903490971e-04
2.381975998042060382e+03 1.000000000000000021e-03
2.468237933000829798e+03 1.778279410038922752e-03
2.566120423042911170e+03 3.162277660168379394e-03
2.673797376427291965e+03 5.623413251903490971e-03
2.791453170715668421e+03 1.000000000000000021e-02
2.921499150415360418e+03 1.778279410038922925e-02
3.067972933722849575e+03 3.162277660168379134e-02
3.239664295739968566e+03 5.623413251903491145e-02
3.416164106687075218e+03 1.000000000000000056e-01
3.621412290051091077e+03 1.778279410038922925e-01
3.863929290433640290e+03 3.162277660168379412e-01
4.141499112668333510e+03 5.623413251903490728e-01
4.500314233516583045e+03 1.000000000000000000e+00
5.013645949140705852e+03 1.778279410038922759e+00
5.836834391781128033e+03 3.162277660168379523e+00
7.127581212124278863e+03 5.623413251903491172e+00
8.780367410573995585e+03 1.000000000000000000e+01
1.000000000000000000e+04 1.778279410038922848e+01
1.000000000000000000e+04 3.162277660168379256e+01
1.000000000000000000e+04 5.623413251903490817e+01
1.000000000000000000e+04 1.000000000000000000e+02
1.000000000000000000e+04 1.778279410038922776e+02
1.000000000000000000e+04 3.162277660168379612e+02
