# Temperature (K), Pressure (bars)
2.129337718226584457e+03 1.778279410038922901e-06
2.132454984371478076e+03 3.162277660168379191e-06
2.135572264057616849e+03 5.623413251903491208e-06
2.154810668664727018e+03 1.000000000000000082e-05
2.178677488136563170e+03 1.778279410038922901e-05
2.207969115803619388e+03 3.162277660168379530e-05
2.247502973209654556e+03 5.623413251903490700e-05
2.297820256357651033e+03 1.000000000000000048e-04
2.361412893911271112e+03 1.778279410038922698e-04
2.436119437326820389e+03 3.162277660168379394e-04
2.518567482041205949e+03 5.623413251903490971e-04
2.607431746077520984e+03 1.000000000000000021e-03
2.702348025447235614e+03 1.778279410038922752e-03
2.798414713948840017e+03 3.162277660168379394e-03
2.886965539683069892e+03 5.623413251903490971e-03
2.955923581882853796e+03 1.000000000000000021e-02
2.999185642996811112e+03 1.778279410038922925e-02
3.002995010984315741e+03 3.162277660168379134e-02
3.021960865713863313e+03 5.623413251903491145e-02
3.143155830588992558e+03 1.000000000000000056e-01
3.319265488765094688e+03 1.778279410038922925e-01
3.503483539870408094e+03 3.162277660168379412e-01
3.716393431031791806e+03 5.623413251903490728e-01
3.963392656467018696e+03 1.000000000000000000e+00
4.252277728146081245e+03 1.778279410038922759e+00
4.569246832601324968e+03 3.162277660168379523e+00
4.963203493010587408e+03 5.623413251903491172e+00
5.482899548319624955e+03 1.000000000000000000e+01
6.227798962459020913e+03 1.778279410038922848e+01
7.361952226066516232e+03 3.162277660168379256e+01
8.970134185704670017e+03 5.623413251903490817e+01
1.000000000000000000e+04 1.000000000000000000e+02
1.000000000000000000e+04 1.778279410038922776e+02
1.000000000000000000e+04 3.162277660168379612e+02
