# Temperature (K), Pressure (bars)
2.335579628519149992e+03 9.999999999999999547e-07
2.354288074392735780e+03 1.778279410038922901e-06
2.372996520266321568e+03 3.162277660168379191e-06
2.391791007329692093e+03 5.623413251903491208e-06
2.409823450684760246e+03 1.000000000000000082e-05
2.426955713588467916e+03 1.778279410038922901e-05
2.443467304941726525e+03 3.162277660168379530e-05
2.457773508487009167e+03 5.623413251903490700e-05
2.466468063549659746e+03 1.000000000000000048e-04
2.468748337691068627e+03 1.778279410038922698e-04
2.470630487201816322e+03 3.162277660168379394e-04
2.480629880489861989e+03 5.623413251903490971e-04
2.502880508907548119e+03 1.000000000000000021e-03
2.536851812825317211e+03 1.778279410038922752e-03
2.582112803608963077e+03 3.162277660168379394e-03
2.638342551313465719e+03 5.623413251903490971e-03
2.709749234907139453e+03 1.000000000000000021e-02
2.805934640863772984e+03 1.778279410038922925e-02
2.925497845329859956e+03 3.162277660168379134e-02
3.060702819663641549e+03 5.623413251903491145e-02
3.211184802007343023e+03 1.000000000000000056e-01
3.380503248513022299e+03 1.778279410038922925e-01
3.573618149898405136e+03 3.162277660168379412e-01
3.797083472419541067e+03 5.623413251903490728e-01
4.058984869923745464e+03 1.000000000000000000e+00
4.371744912160265812e+03 1.778279410038922759e+00
4.729963397077412083e+03 3.162277660168379523e+00
5.198703136778130101e+03 5.623413251903491172e+00
5.860877125415148839e+03 1.000000000000000000e+01
6.857836413095208627e+03 1.778279410038922848e+01
8.337307394504079639e+03 3.162277660168379256e+01
1.019392552916306704e+04 5.623413251903490817e+01
1.240246078351037249e+04 1.000000000000000000e+02
1.509815051564628811e+04 1.778279410038922776e+02
1.831408184568131037e+04 3.162277660168379612e+02
