# Temperature (K), Pressure (bars)
1.272906213331864819e+03 3.162277660168379394e-04
1.305450152205375844e+03 5.623413251903490971e-04
1.337994093017753357e+03 1.000000000000000021e-03
1.373503104527666892e+03 1.778279410038922752e-03
1.414562849663244378e+03 3.162277660168379394e-03
1.459785619646831265e+03 5.623413251903490971e-03
1.519448377181520527e+03 1.000000000000000021e-02
1.596212084059520294e+03 1.778279410038922925e-02
1.666446110559001909e+03 3.162277660168379134e-02
1.723324544773127400e+03 5.623413251903491145e-02
1.780203431119591414e+03 1.000000000000000056e-01
1.844645659725250425e+03 1.778279410038922925e-01
1.919140635420316812e+03 3.162277660168379412e-01
2.013436161070547314e+03 5.623413251903490728e-01
2.127999243952825964e+03 1.000000000000000000e+00
2.288421498401259214e+03 1.778279410038922759e+00
2.529973082979275659e+03 3.162277660168379523e+00
2.801789272249397982e+03 5.623413251903491172e+00
3.061617849722919800e+03 1.000000000000000000e+01
3.322278556163780650e+03 1.778279410038922848e+01
3.592065301682227982e+03 3.162277660168379256e+01
3.877806125423361209e+03 5.623413251903490817e+01
4.186699514863751574e+03 1.000000000000000000e+02
4.522456173482647500e+03 1.778279410038922776e+02
4.901254856055518758e+03 3.162277660168379612e+02
