# Temperature (K), Pressure (bars)
1.841191242761664171e+03 9.999999999999999547e-07
1.841645916353621942e+03 1.778279410038922901e-06
1.842100589948095831e+03 3.162277660168379191e-06
1.847942264807754327e+03 5.623413251903491208e-06
1.859182946357079800e+03 1.000000000000000082e-05
1.874960880440105939e+03 1.778279410038922901e-05
1.896354885254337205e+03 3.162277660168379530e-05
1.923733117723708347e+03 5.623413251903490700e-05
1.955409804681835112e+03 1.000000000000000048e-04
1.990896742717463894e+03 1.778279410038922698e-04
2.030815705899836757e+03 3.162277660168379394e-04
2.074300331999627815e+03 5.623413251903490971e-04
2.121359793539169459e+03 1.000000000000000021e-03
2.172376078621507531e+03 1.778279410038922752e-03
2.228915707074729653e+03 3.162277660168379394e-03
2.291340702925533606e+03 5.623413251903490971e-03
2.367147826198724943e+03 1.000000000000000021e-02
2.469941828492023888e+03 1.778279410038922925e-02
2.593421606275589511e+03 3.162277660168379134e-02
2.725901376480197541e+03 5.623413251903491145e-02
2.867254723302931779e+03 1.000000000000000056e-01
3.019317133406710127e+03 1.778279410038922925e-01
3.184367073579310272e+03 3.162277660168379412e-01
3.364542050069673223e+03 5.623413251903490728e-01
3.561187706380103009e+03 1.000000000000000000e+00
3.775654443627603086e+03 1.778279410038922759e+00
4.011149488940568517e+03 3.162277660168379523e+00
4.273506077613712478e+03 5.623413251903491172e+00
4.571173535134132180e+03 1.000000000000000000e+01
4.915969143594000343e+03 1.778279410038922848e+01
5.326291527179821060e+03 3.162277660168379256e+01
5.827736290614370773e+03 5.623413251903490817e+01
6.462506936579858120e+03 1.000000000000000000e+02
7.302556000684990067e+03 1.778279410038922776e+02
8.459795586557440402e+03 3.162277660168379612e+02
