# Temperature (K), Pressure (bars)
1.005503910557290851e+03 1.778279410038922901e-05
1.052724253411809968e+03 3.162277660168379530e-05
1.099944606525114295e+03 5.623413251903490700e-05
1.166667790139463932e+03 1.000000000000000048e-04
1.263101643376553966e+03 1.778279410038922698e-04
1.392956532981067539e+03 3.162277660168379394e-04
1.561699144174943513e+03 5.623413251903490971e-04
1.705874013443995409e+03 1.000000000000000021e-03
1.786961629230921062e+03 1.778279410038922752e-03
1.840390005660662609e+03 3.162277660168379394e-03
1.885019409017394082e+03 5.623413251903490971e-03
1.923774068586686326e+03 1.000000000000000021e-02
1.961013476653775115e+03 1.778279410038922925e-02
2.000137458179237683e+03 3.162277660168379134e-02
2.046025748330526767e+03 5.623413251903491145e-02
2.101714072969559766e+03 1.000000000000000056e-01
2.172553146242576076e+03 1.778279410038922925e-01
2.257610735327041766e+03 3.162277660168379412e-01
2.380164099532606087e+03 5.623413251903490728e-01
2.572498929643430984e+03 1.000000000000000000e+00
2.797183304187787144e+03 1.778279410038922759e+00
3.018676916829385391e+03 3.162277660168379523e+00
3.243954462319324193e+03 5.623413251903491172e+00
3.477742177421848737e+03 1.000000000000000000e+01
3.724810490420281894e+03 1.778279410038922848e+01
3.992090166391490584e+03 3.162277660168379256e+01
4.285589465999764798e+03 5.623413251903490817e+01
4.612366385347731011e+03 1.000000000000000000e+02
4.975485664750066462e+03 1.778279410038922776e+02
5.395808004360362247e+03 3.162277660168379612e+02
