# Temperature (K), Pressure (bars)
8.379920589097690709e+02 1.000000000000000082e-05
8.816804545340035020e+02 1.778279410038922901e-05
9.253688494903066157e+02 3.162277660168379530e-05
9.674073293025917337e+02 5.623413251903490700e-05
1.012558796322235821e+03 1.000000000000000048e-04
1.062892663958773028e+03 1.778279410038922698e-04
1.114708460397713452e+03 3.162277660168379394e-04
1.164797048492208887e+03 5.623413251903490971e-04
1.209432837958951950e+03 1.000000000000000021e-03
1.246188820249673199e+03 1.778279410038922752e-03
1.280298973976814068e+03 3.162277660168379394e-03
1.319446264765490696e+03 5.623413251903490971e-03
1.369970491547186612e+03 1.000000000000000021e-02
1.420573728004590066e+03 1.778279410038922925e-02
1.528773053661136373e+03 3.162277660168379134e-02
1.761795651268882011e+03 5.623413251903491145e-02
2.034524282082796162e+03 1.000000000000000056e-01
2.278138947924003787e+03 1.778279410038922925e-01
2.503784090217592620e+03 3.162277660168379412e-01
2.714227267974137249e+03 5.623413251903490728e-01
2.915829432574408656e+03 1.000000000000000000e+00
3.115403648380551203e+03 1.778279410038922759e+00
3.319489856201464590e+03 3.162277660168379523e+00
3.533810893302013483e+03 5.623413251903491172e+00
3.763470951615584909e+03 1.000000000000000000e+01
4.013745910349072801e+03 1.778279410038922848e+01
4.292805938668199815e+03 3.162277660168379256e+01
4.605630994740248752e+03 5.623413251903490817e+01
4.960373324776978734e+03 1.000000000000000000e+02
5.360683479890343733e+03 1.778279410038922776e+02
5.832964783185332635e+03 3.162277660168379612e+02
