# Temperature (K), Pressure (bars)
1.661507326606220204e+03 1.000000000000000082e-05
1.673315282040738339e+03 1.778279410038922901e-05
1.685123239870310726e+03 3.162277660168379530e-05
1.704382058013317646e+03 5.623413251903490700e-05
1.730487099582231622e+03 1.000000000000000048e-04
1.760575669536216537e+03 1.778279410038922698e-04
1.796399896985633632e+03 3.162277660168379394e-04
1.837369209988266448e+03 5.623413251903490971e-04
1.881282092979537538e+03 1.000000000000000021e-03
1.928550830883194067e+03 1.778279410038922752e-03
1.979176958178413088e+03 3.162277660168379394e-03
2.033453890480989458e+03 5.623413251903490971e-03
2.092242075949584432e+03 1.000000000000000021e-02
2.156212227950117267e+03 1.778279410038922925e-02
2.228980672354782655e+03 3.162277660168379134e-02
2.315607557774887937e+03 5.623413251903491145e-02
2.435979718025742841e+03 1.000000000000000056e-01
2.599309045516800325e+03 1.778279410038922925e-01
2.774433073338555459e+03 3.162277660168379412e-01
2.947310421855477216e+03 5.623413251903490728e-01
3.128308541589233755e+03 1.000000000000000000e+00
3.320726266383900565e+03 1.778279410038922759e+00
3.526609468810469934e+03 3.162277660168379523e+00
3.748229712917599045e+03 5.623413251903491172e+00
3.989314252798347297e+03 1.000000000000000000e+01
4.255189059182667734e+03 1.778279410038922848e+01
4.552589009847618399e+03 3.162277660168379256e+01
4.890430532619291625e+03 5.623413251903490817e+01
5.284566710140238683e+03 1.000000000000000000e+02
5.746784970580428308e+03 1.778279410038922776e+02
6.298927126928063444e+03 3.162277660168379612e+02
