# Temperature (K), Pressure (bars)
2.357853062349422089e+03 1.000000000000000048e-04
2.415713322270035860e+03 1.778279410038922698e-04
2.473573609247183413e+03 3.162277660168379394e-04
2.533612209159537542e+03 5.623413251903490971e-04
2.594355360560639383e+03 1.000000000000000021e-03
2.653499808916550592e+03 1.778279410038922752e-03
2.708372459487998640e+03 3.162277660168379394e-03
2.756301205384093009e+03 5.623413251903490971e-03
2.796188732501184859e+03 1.000000000000000021e-02
2.833529556100383616e+03 1.778279410038922925e-02
2.875294888060480844e+03 3.162277660168379134e-02
2.934069742064346428e+03 5.623413251903491145e-02
3.033815024288126551e+03 1.000000000000000056e-01
3.175002105573832523e+03 1.778279410038922925e-01
3.338501398015206178e+03 3.162277660168379412e-01
3.520906581735640884e+03 5.623413251903490728e-01
3.727706735606592702e+03 1.000000000000000000e+00
3.962265412882843520e+03 1.778279410038922759e+00
4.228502308143495611e+03 3.162277660168379523e+00
4.534149333215317711e+03 5.623413251903491172e+00
4.884585943743426469e+03 1.000000000000000000e+01
5.312247222391772084e+03 1.778279410038922848e+01
5.855759325429582532e+03 3.162277660168379256e+01
6.586882991458261131e+03 5.623413251903490817e+01
7.629262568359339639e+03 1.000000000000000000e+02
9.121698199267499149e+03 1.778279410038922776e+02
1.103187163280542518e+04 3.162277660168379612e+02
