# Temperature (K), Pressure (bars)
8.510767592015477021e+02 3.162277660168379394e-04
8.996582742799272410e+02 5.623413251903490971e-04
9.482397905625974772e+02 1.000000000000000021e-03
9.962425473642205134e+02 1.778279410038922752e-03
1.044376490894576818e+03 3.162277660168379394e-03
1.093619462359954923e+03 5.623413251903490971e-03
1.145535089219558813e+03 1.000000000000000021e-02
1.203285944688537484e+03 1.778279410038922925e-02
1.271525050634948911e+03 3.162277660168379134e-02
1.356979469203071176e+03 5.623413251903491145e-02
1.469087425866959393e+03 1.000000000000000056e-01
1.639223217263104743e+03 1.778279410038922925e-01
1.879960320318894901e+03 3.162277660168379412e-01
2.145756713702341585e+03 5.623413251903490728e-01
2.404804768476776189e+03 1.000000000000000000e+00
2.653683869762187442e+03 1.778279410038922759e+00
2.891514834421996966e+03 3.162277660168379523e+00
3.124885394508605259e+03 5.623413251903491172e+00
3.361244191202790262e+03 1.000000000000000000e+01
3.607627591296188712e+03 1.778279410038922848e+01
3.872536237893987618e+03 3.162277660168379256e+01
4.160851089730539570e+03 5.623413251903490817e+01
4.479244573209772170e+03 1.000000000000000000e+02
4.830834956199507360e+03 1.778279410038922776e+02
5.234433672581775681e+03 3.162277660168379612e+02
