# Temperature (K), Pressure (bars)
1.483852227326044613e+03 1.778279410038922901e-06
1.504326825694381569e+03 3.162277660168379191e-06
1.524801433153380913e+03 5.623413251903491208e-06
1.550984617985727937e+03 1.000000000000000082e-05
1.586866130079048389e+03 1.778279410038922901e-05
1.632274203725133475e+03 3.162277660168379530e-05
1.682741776100066545e+03 5.623413251903490700e-05
1.738141952714134504e+03 1.000000000000000048e-04
1.800287269680550480e+03 1.778279410038922698e-04
1.867467504128725523e+03 3.162277660168379394e-04
1.939939072553556798e+03 5.623413251903490971e-04
2.016882022123751767e+03 1.000000000000000021e-03
2.103446258055262660e+03 1.778279410038922752e-03
2.210685939923543174e+03 3.162277660168379394e-03
2.332786004751109886e+03 5.623413251903490971e-03
2.459733966534153751e+03 1.000000000000000021e-02
2.591632257456958087e+03 1.778279410038922925e-02
2.730096002324707115e+03 3.162277660168379134e-02
2.876761867223991430e+03 5.623413251903491145e-02
3.033391848387143909e+03 1.000000000000000056e-01
3.202125870682124514e+03 1.778279410038922925e-01
3.385394378785350000e+03 3.162277660168379412e-01
3.585552194153021446e+03 5.623413251903490728e-01
3.805329141704302856e+03 1.000000000000000000e+00
4.049520943443736542e+03 1.778279410038922759e+00
4.325934982631453749e+03 3.162277660168379523e+00
4.647500268394044724e+03 5.623413251903491172e+00
5.029621576549472593e+03 1.000000000000000000e+01
5.509672898807387355e+03 1.778279410038922848e+01
6.144245515638025608e+03 3.162277660168379256e+01
7.027317570852829704e+03 5.623413251903490817e+01
8.308496232526005770e+03 1.000000000000000000e+02
1.000000000000000000e+04 1.778279410038922776e+02
1.000000000000000000e+04 3.162277660168379612e+02
