# Temperature (K), Pressure (bars)
1.103605783309762046e+03 9.999999999999999547e-07
1.129665968607108198e+03 1.778279410038922901e-06
1.155726153908047763e+03 3.162277660168379191e-06
1.186030533990169943e+03 5.623413251903491208e-06
1.222143474574786524e+03 1.000000000000000082e-05
1.262609519729135855e+03 1.778279410038922901e-05
1.306533591245585512e+03 3.162277660168379530e-05
1.354841758616691550e+03 5.623413251903490700e-05
1.409655012915868610e+03 1.000000000000000048e-04
1.473726759192184090e+03 1.778279410038922698e-04
1.544901299299806851e+03 3.162277660168379394e-04
1.624718332836461286e+03 5.623413251903490971e-04
1.722687062121864983e+03 1.000000000000000021e-03
1.829124684379795781e+03 1.778279410038922752e-03
1.936052169961835261e+03 3.162277660168379394e-03
2.063587217148840409e+03 5.623413251903490971e-03
2.217168553452419474e+03 1.000000000000000021e-02
2.377111755732252277e+03 1.778279410038922925e-02
2.534673494926609237e+03 3.162277660168379134e-02
2.693427972082677115e+03 5.623413251903491145e-02
2.856118521179910204e+03 1.000000000000000056e-01
3.025000404067584896e+03 1.778279410038922925e-01
3.201743833161746807e+03 3.162277660168379412e-01
3.387665942656561583e+03 5.623413251903490728e-01
3.585035955985362307e+03 1.000000000000000000e+00
3.797942028225532340e+03 1.778279410038922759e+00
4.031926177435550926e+03 3.162277660168379523e+00
4.293741684533145417e+03 5.623413251903491172e+00
4.592192679832727663e+03 1.000000000000000000e+01
4.940822177946635748e+03 1.778279410038922848e+01
5.356944813195891584e+03 3.162277660168379256e+01
5.867062763743271717e+03 5.623413251903490817e+01
6.513410054259143180e+03 1.000000000000000000e+02
7.366704383473141206e+03 1.778279410038922776e+02
8.546274203236534959e+03 3.162277660168379612e+02
