# Temperature (K), Pressure (bars)
9.576517202857291977e+02 3.162277660168379394e-04
1.011120689258868651e+03 5.623413251903490971e-04
1.064589658021083324e+03 1.000000000000000021e-03
1.115548049792825850e+03 1.778279410038922752e-03
1.162315046668447394e+03 3.162277660168379394e-03
1.204834050653387294e+03 5.623413251903490971e-03
1.243220129915755024e+03 1.000000000000000021e-02
1.277622890947764745e+03 1.778279410038922925e-02
1.311860375604346018e+03 3.162277660168379134e-02
1.351760555270440136e+03 5.623413251903491145e-02
1.401473228880201987e+03 1.000000000000000056e-01
1.459129512478754123e+03 1.778279410038922925e-01
1.521256281159117862e+03 3.162277660168379412e-01
1.605145455428241348e+03 5.623413251903490728e-01
1.734110157901904358e+03 1.000000000000000000e+00
1.938582098167510139e+03 1.778279410038922759e+00
2.223074908282998877e+03 3.162277660168379523e+00
2.524083723029138582e+03 5.623413251903491172e+00
2.807547276030531521e+03 1.000000000000000000e+01
3.085590178263500547e+03 1.778279410038922848e+01
3.366337509832609612e+03 3.162277660168379256e+01
3.656384385272935560e+03 5.623413251903490817e+01
3.963513803105005081e+03 1.000000000000000000e+02
4.292064314020329221e+03 1.778279410038922776e+02
4.657377580734348157e+03 3.162277660168379612e+02
