# Temperature (K), Pressure (bars)
9.999335622323185362e+02 3.162277660168379394e-04
1.050811477181220880e+03 5.623413251903490971e-04
1.101689394057552818e+03 1.000000000000000021e-03
1.151163377176253789e+03 1.778279410038922752e-03
1.201295939818059423e+03 3.162277660168379394e-03
1.253351277670410354e+03 5.623413251903490971e-03
1.307271499707702560e+03 1.000000000000000021e-02
1.364288258930230540e+03 1.778279410038922925e-02
1.428112626753794984e+03 3.162277660168379134e-02
1.507982921861016848e+03 5.623413251903491145e-02
1.612398886494965382e+03 1.000000000000000056e-01
1.748121911838236883e+03 1.778279410038922925e-01
1.919591685374809686e+03 3.162277660168379412e-01
2.136730644542290065e+03 5.623413251903490728e-01
2.394422178845562939e+03 1.000000000000000000e+00
2.650109908183237621e+03 1.778279410038922759e+00
2.887568826560796424e+03 3.162277660168379523e+00
3.121547682173204976e+03 5.623413251903491172e+00
3.359139500003114335e+03 1.000000000000000000e+01
3.606632313115714169e+03 1.778279410038922848e+01
3.872000320101989018e+03 3.162277660168379256e+01
4.160813398706383850e+03 5.623413251903490817e+01
4.479866471506082235e+03 1.000000000000000000e+02
4.832249205126978268e+03 1.778279410038922776e+02
5.237195268284488520e+03 3.162277660168379612e+02
