# Temperature (K), Pressure (bars)
2.347519540232749932e+03 9.999999999999999547e-07
2.357251837398534008e+03 1.778279410038922901e-06
2.366984134564317628e+03 3.162277660168379191e-06
2.392552368469160683e+03 5.623413251903491208e-06
2.423491492790336906e+03 1.000000000000000082e-05
2.455497051288951752e+03 1.778279410038922901e-05
2.491465302038125628e+03 3.162277660168379530e-05
2.532259797010813145e+03 5.623413251903490700e-05
2.578359613563783569e+03 1.000000000000000048e-04
2.628914237612788384e+03 1.778279410038922698e-04
2.682393628905776495e+03 3.162277660168379394e-04
2.736339810515133649e+03 5.623413251903490971e-04
2.788154841422325717e+03 1.000000000000000021e-03
2.835468600636501378e+03 1.778279410038922752e-03
2.877240889699129639e+03 3.162277660168379394e-03
2.918734799301121257e+03 5.623413251903490971e-03
2.965859845496479920e+03 1.000000000000000021e-02
3.025497654614078783e+03 1.778279410038922925e-02
3.084835465271721660e+03 3.162277660168379134e-02
3.161267093305020808e+03 5.623413251903491145e-02
3.307302849990999221e+03 1.000000000000000056e-01
3.501962653411849260e+03 1.778279410038922925e-01
3.706550544422263101e+03 3.162277660168379412e-01
3.948392335424153316e+03 5.623413251903490728e-01
4.232650475667545834e+03 1.000000000000000000e+00
4.578718300029113379e+03 1.778279410038922759e+00
5.042341878029299551e+03 3.162277660168379523e+00
5.732033959961908295e+03 5.623413251903491172e+00
6.831149127793476509e+03 1.000000000000000000e+01
8.389062942184733402e+03 1.778279410038922848e+01
1.000000000000000000e+04 3.162277660168379256e+01
1.000000000000000000e+04 5.623413251903490817e+01
1.000000000000000000e+04 1.000000000000000000e+02
1.000000000000000000e+04 1.778279410038922776e+02
1.000000000000000000e+04 3.162277660168379612e+02
