# Temperature (K), Pressure (bars)
9.377263340117907546e+02 1.000000000000000048e-04
9.933048046848157355e+02 1.778279410038922698e-04
1.048883276895198151e+03 3.162277660168379394e-04
1.102865685778478564e+03 5.623413251903490971e-04
1.156337583922034582e+03 1.000000000000000021e-03
1.211245731130195963e+03 1.778279410038922752e-03
1.268365099786973587e+03 3.162277660168379394e-03
1.330096824851976180e+03 5.623413251903490971e-03
1.399143482281235038e+03 1.000000000000000021e-02
1.482381374736362204e+03 1.778279410038922925e-02
1.588694537593294626e+03 3.162277660168379134e-02
1.735870019248667631e+03 5.623413251903491145e-02
1.943341764687196928e+03 1.000000000000000056e-01
2.184674414440002238e+03 1.778279410038922925e-01
2.417040064831593554e+03 3.162277660168379412e-01
2.632509029336584717e+03 5.623413251903490728e-01
2.839093661716145107e+03 1.000000000000000000e+00
3.043429426688819603e+03 1.778279410038922759e+00
3.250976004778330662e+03 3.162277660168379523e+00
3.466835509510583961e+03 5.623413251903491172e+00
3.696144594437950218e+03 1.000000000000000000e+01
3.944255554195210152e+03 1.778279410038922848e+01
4.219195635133544783e+03 3.162277660168379256e+01
4.526019146870414261e+03 5.623413251903490817e+01
4.872574438515833208e+03 1.000000000000000000e+02
5.262905110414285446e+03 1.778279410038922776e+02
5.721366846477266336e+03 3.162277660168379612e+02
