# Temperature (K), Pressure (bars)
9.684877768432099856e+02 3.162277660168379394e-04
1.019335262378554148e+03 5.623413251903490971e-04
1.070182748665343752e+03 1.000000000000000021e-03
1.119144598691967758e+03 1.778279410038922752e-03
1.164904258620819519e+03 3.162277660168379394e-03
1.207644764488010878e+03 5.623413251903490971e-03
1.249590731319766292e+03 1.000000000000000021e-02
1.295875968762259618e+03 1.778279410038922925e-02
1.348719023818149026e+03 3.162277660168379134e-02
1.404235451091419463e+03 5.623413251903491145e-02
1.468656995679821193e+03 1.000000000000000056e-01
1.537198070270213066e+03 1.778279410038922925e-01
1.636124135247589720e+03 3.162277660168379412e-01
1.826687981652546796e+03 5.623413251903490728e-01
2.085615743154284246e+03 1.000000000000000000e+00
2.358171089464177840e+03 1.778279410038922759e+00
2.626576463060340757e+03 3.162277660168379523e+00
2.884681245728352678e+03 5.623413251903491172e+00
3.137501260398767954e+03 1.000000000000000000e+01
3.392768383615268249e+03 1.778279410038922848e+01
3.660072517983577654e+03 3.162277660168379256e+01
3.945366611308048959e+03 5.623413251903490817e+01
4.255575629593451595e+03 1.000000000000000000e+02
4.593892758472915375e+03 1.778279410038922776e+02
4.977412694518016906e+03 3.162277660168379612e+02
