# Temperature (K), Pressure (bars)
2.261458795635500337e+03 9.999999999999999547e-07
2.280282211839311913e+03 1.778279410038922901e-06
2.299105628043123943e+03 3.162277660168379191e-06
2.327354225019842943e+03 5.623413251903491208e-06
2.359100611908846076e+03 1.000000000000000082e-05
2.391237983631983752e+03 1.778279410038922901e-05
2.424797892872739340e+03 3.162277660168379530e-05
2.459389349830044466e+03 5.623413251903490700e-05
2.493013522854427720e+03 1.000000000000000048e-04
2.521740471687747686e+03 1.778279410038922698e-04
2.542172622965271330e+03 3.162277660168379394e-04
2.556380176865140129e+03 5.623413251903490971e-04
2.574045677047628942e+03 1.000000000000000021e-03
2.604145573899877945e+03 1.778279410038922752e-03
2.649857921697599068e+03 3.162277660168379394e-03
2.707221845965081684e+03 5.623413251903490971e-03
2.772529852296753234e+03 1.000000000000000021e-02
2.834331169450144898e+03 1.778279410038922925e-02
2.908872680010403656e+03 3.162277660168379134e-02
3.034055391500169208e+03 5.623413251903491145e-02
3.190495149667995065e+03 1.000000000000000056e-01
3.359716630817118585e+03 1.778279410038922925e-01
3.555264296033173650e+03 3.162277660168379412e-01
3.779611991660698550e+03 5.623413251903490728e-01
4.039856357117351308e+03 1.000000000000000000e+00
4.345620918303184226e+03 1.778279410038922759e+00
4.694266389787600929e+03 3.162277660168379523e+00
5.145238615974372806e+03 5.623413251903491172e+00
5.777677752144826627e+03 1.000000000000000000e+01
6.743351047003757230e+03 1.778279410038922848e+01
8.177402490420355207e+03 3.162277660168379256e+01
1.000000000000000000e+04 5.623413251903490817e+01
1.000000000000000000e+04 1.000000000000000000e+02
1.000000000000000000e+04 1.778279410038922776e+02
1.000000000000000000e+04 3.162277660168379612e+02
