# Temperature (K), Pressure (bars)
9.677064654554008030e+02 3.162277660168379530e-05
1.016811950954469467e+03 5.623413251903490700e-05
1.065917438192700956e+03 1.000000000000000048e-04
1.113867423512836922e+03 1.778279410038922698e-04
1.159693902010652891e+03 3.162277660168379394e-04
1.205089350890747937e+03 5.623413251903490971e-04
1.253029513658676933e+03 1.000000000000000021e-03
1.308342159488202924e+03 1.778279410038922752e-03
1.375205728924549248e+03 3.162277660168379394e-03
1.455634485125439596e+03 5.623413251903490971e-03
1.549543764405030515e+03 1.000000000000000021e-02
1.653450631520848219e+03 1.778279410038922925e-02
1.759173542833746978e+03 3.162277660168379134e-02
1.867435569221673404e+03 5.623413251903491145e-02
1.982937298012798919e+03 1.000000000000000056e-01
2.134225613032708225e+03 1.778279410038922925e-01
2.347201273059836694e+03 3.162277660168379412e-01
2.574538019486944904e+03 5.623413251903490728e-01
2.784600655143043241e+03 1.000000000000000000e+00
2.992117875540202931e+03 1.778279410038922759e+00
3.202861011561488795e+03 3.162277660168379523e+00
3.421062003922361782e+03 5.623413251903491172e+00
3.651392221839166723e+03 1.000000000000000000e+01
3.899210828694531756e+03 1.778279410038922848e+01
4.172222138121485841e+03 3.162277660168379256e+01
4.475891802404916234e+03 5.623413251903490817e+01
4.817892556302100274e+03 1.000000000000000000e+02
5.201791151611062560e+03 1.778279410038922776e+02
5.651475656501072081e+03 3.162277660168379612e+02
