# Temperature (K), Pressure (bars)
7.880855447093761086e+02 1.000000000000000082e-05
8.465705655568107204e+02 1.778279410038922901e-05
9.050555882855809386e+02 3.162277660168379530e-05
9.607343130253049139e+02 5.623413251903490700e-05
1.012783074825935955e+03 1.000000000000000048e-04
1.062837209953572255e+03 1.778279410038922698e-04
1.111276883285612485e+03 3.162277660168379394e-04
1.159108336697531513e+03 5.623413251903490971e-04
1.206007704713729254e+03 1.000000000000000021e-03
1.246676628926965577e+03 1.778279410038922752e-03
1.279108381816203973e+03 3.162277660168379394e-03
1.312133625736688600e+03 5.623413251903490971e-03
1.348142807496966498e+03 1.000000000000000021e-02
1.385940736671778041e+03 1.778279410038922925e-02
1.464663880572988774e+03 3.162277660168379134e-02
1.611508927735214456e+03 5.623413251903491145e-02
1.787014928769600829e+03 1.000000000000000056e-01
1.988621107308363435e+03 1.778279410038922925e-01
2.234507574450517495e+03 3.162277660168379412e-01
2.480587313061030272e+03 5.623413251903490728e-01
2.704441316445674602e+03 1.000000000000000000e+00
2.920728484835947711e+03 1.778279410038922759e+00
3.135806811552421550e+03 3.162277660168379523e+00
3.355374364064683505e+03 5.623413251903491172e+00
3.585272094017354448e+03 1.000000000000000000e+01
3.831297399276879787e+03 1.778279410038922848e+01
4.101372653670548061e+03 3.162277660168379256e+01
4.400427618723494561e+03 5.623413251903490817e+01
4.735746614726572261e+03 1.000000000000000000e+02
5.110649311657020917e+03 1.778279410038922776e+02
5.547538038216962377e+03 3.162277660168379612e+02
