# Temperature (K), Pressure (bars)
1.309339835989518406e+03 9.999999999999999547e-07
1.339265201249232632e+03 1.778279410038922901e-06
1.369190566512669193e+03 3.162277660168379191e-06
1.404244195567513543e+03 5.623413251903491208e-06
1.444377388812507434e+03 1.000000000000000082e-05
1.494766022877329078e+03 1.778279410038922901e-05
1.560349227924203433e+03 3.162277660168379530e-05
1.629777634105671495e+03 5.623413251903490700e-05
1.694326525531355401e+03 1.000000000000000048e-04
1.758857122279787745e+03 1.778279410038922698e-04
1.827319533282235625e+03 3.162277660168379394e-04
1.900351783831246394e+03 5.623413251903490971e-04
1.977919395160565955e+03 1.000000000000000021e-03
2.067004650560919799e+03 1.778279410038922752e-03
2.178919692388001749e+03 3.162277660168379394e-03
2.308172091012800593e+03 5.623413251903490971e-03
2.443515300644024137e+03 1.000000000000000021e-02
2.583621641678457763e+03 1.778279410038922925e-02
2.730038434212635821e+03 3.162277660168379134e-02
2.884620112576464635e+03 5.623413251903491145e-02
3.049413690618423061e+03 1.000000000000000056e-01
3.226295202015619907e+03 1.778279410038922925e-01
3.416475108915422425e+03 3.162277660168379412e-01
3.621412073451395372e+03 5.623413251903490728e-01
3.844880943623128587e+03 1.000000000000000000e+00
4.093984612173494952e+03 1.778279410038922759e+00
4.378821571577227587e+03 3.162277660168379523e+00
4.708088925414027472e+03 5.623413251903491172e+00
5.111555246054169402e+03 1.000000000000000000e+01
5.629017414557880329e+03 1.778279410038922848e+01
6.333279331563988308e+03 3.162277660168379256e+01
7.359244018168338698e+03 5.623413251903490817e+01
8.853186652584128751e+03 1.000000000000000000e+02
1.077155063505442922e+04 1.778279410038922776e+02
1.306689093245503500e+04 3.162277660168379612e+02
