# Temperature (K), Pressure (bars)
2.175717535145049169e+03 9.999999999999999547e-07
2.184429524644940102e+03 1.778279410038922901e-06
2.193141514144831035e+03 3.162277660168379191e-06
2.215402135833807279e+03 5.623413251903491208e-06
2.241500419862504259e+03 1.000000000000000082e-05
2.266552173268750266e+03 1.778279410038922901e-05
2.292218842221118393e+03 3.162277660168379530e-05
2.318331902980477025e+03 5.623413251903490700e-05
2.344575642823303497e+03 1.000000000000000048e-04
2.369808525064565401e+03 1.778279410038922698e-04
2.393599019140236123e+03 3.162277660168379394e-04
2.416964170946436298e+03 5.623413251903490971e-04
2.442168869618045392e+03 1.000000000000000021e-03
2.472158509227767354e+03 1.778279410038922752e-03
2.507072209429369195e+03 3.162277660168379394e-03
2.548827145143666257e+03 5.623413251903490971e-03
2.593070900658483424e+03 1.000000000000000021e-02
2.654757708787477441e+03 1.778279410038922925e-02
2.762365433690891223e+03 3.162277660168379134e-02
2.895978721068932828e+03 5.623413251903491145e-02
3.036713834188923556e+03 1.000000000000000056e-01
3.193304256249244190e+03 1.778279410038922925e-01
3.369372603010329385e+03 3.162277660168379412e-01
3.567171345751693025e+03 5.623413251903490728e-01
3.787751697587265426e+03 1.000000000000000000e+00
4.033726914965749074e+03 1.778279410038922759e+00
4.312076302632182887e+03 3.162277660168379523e+00
4.635152357463191947e+03 5.623413251903491172e+00
5.014740555249437421e+03 1.000000000000000000e+01
5.491155050524800572e+03 1.778279410038922848e+01
6.123317882211860706e+03 3.162277660168379256e+01
7.019883338648598510e+03 5.623413251903490817e+01
8.332954738508633454e+03 1.000000000000000000e+02
1.000000000000000000e+04 1.778279410038922776e+02
1.000000000000000000e+04 3.162277660168379612e+02
