# Temperature (K), Pressure (bars)
1.997226623554585331e+03 9.999999999999999547e-07
2.056349884510080756e+03 1.778279410038922901e-06
2.115473145465576181e+03 3.162277660168379191e-06
2.165161533606873490e+03 5.623413251903491208e-06
2.203059906811590736e+03 1.000000000000000082e-05
2.232500078493064393e+03 1.778279410038922901e-05
2.258888888756129745e+03 3.162277660168379530e-05
2.287965106295737314e+03 5.623413251903490700e-05
2.323441754004174072e+03 1.000000000000000048e-04
2.366719272571110196e+03 1.778279410038922698e-04
2.418646485904086603e+03 3.162277660168379394e-04
2.480232170685342226e+03 5.623413251903490971e-04
2.553047556053156768e+03 1.000000000000000021e-03
2.639463800775443815e+03 1.778279410038922752e-03
2.741039659894843680e+03 3.162277660168379394e-03
2.856870337154844037e+03 5.623413251903490971e-03
2.985991561617855041e+03 1.000000000000000021e-02
3.130962000663880644e+03 1.778279410038922925e-02
3.301006116744861174e+03 3.162277660168379134e-02
3.523173093406792759e+03 5.623413251903491145e-02
3.765889569384010883e+03 1.000000000000000056e-01
4.095079453141986050e+03 1.778279410038922925e-01
4.616147425703458794e+03 3.162277660168379412e-01
5.460938482567154097e+03 5.623413251903490728e-01
6.666750885723055035e+03 1.000000000000000000e+00
8.215466538075070275e+03 1.778279410038922759e+00
9.760204993037119493e+03 3.162277660168379523e+00
1.139537229730880972e+04 5.623413251903491172e+00
1.342308275377283644e+04 1.000000000000000000e+01
1.599227488154627099e+04 1.778279410038922848e+01
1.923537948717475228e+04 3.162277660168379256e+01
2.330277816555168101e+04 5.623413251903490817e+01
2.834425388059118632e+04 1.000000000000000000e+02
3.449678988994046813e+04 1.778279410038922776e+02
4.182935476763654151e+04 3.162277660168379612e+02
