# Temperature (K), Pressure (bars)
1.468804101185559148e+03 9.999999999999999547e-07
1.493561597074604379e+03 1.778279410038922901e-06
1.518319092979088282e+03 3.162277660168379191e-06
1.550569028635449286e+03 5.623413251903491208e-06
1.588940830429161451e+03 1.000000000000000082e-05
1.631059957498359836e+03 1.778279410038922901e-05
1.675912297364211554e+03 3.162277660168379530e-05
1.722080469040861772e+03 5.623413251903490700e-05
1.766690636391625048e+03 1.000000000000000048e-04
1.812314537376335920e+03 1.778279410038922698e-04
1.860923659484134078e+03 3.162277660168379394e-04
1.910960017312302170e+03 5.623413251903490971e-04
1.963524559996197240e+03 1.000000000000000021e-03
2.019588055998287246e+03 1.778279410038922752e-03
2.081748776156136046e+03 3.162277660168379394e-03
2.150450982450965057e+03 5.623413251903490971e-03
2.234828977499974826e+03 1.000000000000000021e-02
2.350518731870805823e+03 1.778279410038922925e-02
2.487413751014612899e+03 3.162277660168379134e-02
2.630241781435229768e+03 5.623413251903491145e-02
2.779171890617979898e+03 1.000000000000000056e-01
2.936477543240142040e+03 1.778279410038922925e-01
3.104458430507056164e+03 3.162277660168379412e-01
3.284497322405015439e+03 5.623413251903490728e-01
3.477185404636165003e+03 1.000000000000000000e+00
3.684033864329334392e+03 1.778279410038922759e+00
3.908740336614235730e+03 3.162277660168379523e+00
4.156814043629186017e+03 5.623413251903491172e+00
4.435254719343000943e+03 1.000000000000000000e+01
4.753404011386925959e+03 1.778279410038922848e+01
5.126521614019582557e+03 3.162277660168379256e+01
5.571445807304362461e+03 5.623413251903490817e+01
6.115552239559731788e+03 1.000000000000000000e+02
6.802744723013255680e+03 1.778279410038922776e+02
7.705301407651340014e+03 3.162277660168379612e+02
