# Temperature (K), Pressure (bars)
8.586209653114220828e+02 1.778279410038922901e-05
9.028868822804564616e+02 3.162277660168379530e-05
9.471527987656320420e+02 5.623413251903490700e-05
9.909117047897333350e+02 1.000000000000000048e-04
1.038668502979605364e+03 1.778279410038922698e-04
1.090642946501440974e+03 3.162277660168379394e-04
1.143023955107526490e+03 5.623413251903490971e-04
1.192707333005382225e+03 1.000000000000000021e-03
1.234942511008274550e+03 1.778279410038922752e-03
1.270846610553458731e+03 3.162277660168379394e-03
1.305804164719950677e+03 5.623413251903490971e-03
1.351297452487070359e+03 1.000000000000000021e-02
1.400854121319613796e+03 1.778279410038922925e-02
1.465867155812413785e+03 3.162277660168379134e-02
1.620129309447777359e+03 5.623413251903491145e-02
1.864975423113454553e+03 1.000000000000000056e-01
2.124436729652119539e+03 1.778279410038922925e-01
2.366923805664632255e+03 3.162277660168379412e-01
2.593098040189400308e+03 5.623413251903490728e-01
2.806678053235025345e+03 1.000000000000000000e+00
3.014187398825056789e+03 1.778279410038922759e+00
3.222584254125634743e+03 3.162277660168379523e+00
3.438310466343248208e+03 5.623413251903491172e+00
3.666992878244764142e+03 1.000000000000000000e+01
3.914080438028529898e+03 1.778279410038922848e+01
4.187643767334555378e+03 3.162277660168379256e+01
4.492312017234406994e+03 5.623413251903490817e+01
4.835694289502806896e+03 1.000000000000000000e+02
5.221185831713129119e+03 1.778279410038922776e+02
5.672602839911093724e+03 3.162277660168379612e+02
