# Temperature (K), Pressure (bars)
1.063514427121397830e+03 3.162277660168379394e-04
1.101694611132314549e+03 5.623413251903490971e-04
1.139874793652034896e+03 1.000000000000000021e-03
1.175370420110936038e+03 1.778279410038922752e-03
1.208876061777023097e+03 3.162277660168379394e-03
1.242070019012468492e+03 5.623413251903490971e-03
1.275802210633094774e+03 1.000000000000000021e-02
1.311282370799007822e+03 1.778279410038922925e-02
1.350541573059165330e+03 3.162277660168379134e-02
1.389576673148294276e+03 5.623413251903491145e-02
1.436911952501817041e+03 1.000000000000000056e-01
1.516959215691484815e+03 1.778279410038922925e-01
1.638106616702515794e+03 3.162277660168379412e-01
1.794177892795196158e+03 5.623413251903490728e-01
2.004589486299271584e+03 1.000000000000000000e+00
2.278863500641862174e+03 1.778279410038922759e+00
2.563324034683772879e+03 3.162277660168379523e+00
2.827823381800896186e+03 5.623413251903491172e+00
3.085564669472805690e+03 1.000000000000000000e+01
3.344034907861001557e+03 1.778279410038922848e+01
3.612659633405386103e+03 3.162277660168379256e+01
3.897963162325522262e+03 5.623413251903490817e+01
4.206955059722797159e+03 1.000000000000000000e+02
4.543071040311893739e+03 1.778279410038922776e+02
4.922971189602706545e+03 3.162277660168379612e+02
