# Temperature (K), Pressure (bars)
2.069679955807276201e+03 9.999999999999999547e-07
2.100784866826583311e+03 1.778279410038922901e-06
2.131889777847310597e+03 3.162277660168379191e-06
2.168126292222559186e+03 5.623413251903491208e-06
2.208355677519394703e+03 1.000000000000000082e-05
2.249939168216783401e+03 1.778279410038922901e-05
2.291675563623164635e+03 3.162277660168379530e-05
2.331796180970249225e+03 5.623413251903490700e-05
2.368300039812065734e+03 1.000000000000000048e-04
2.400938526012374950e+03 1.778279410038922698e-04
2.431210464366408360e+03 3.162277660168379394e-04
2.461133039814683798e+03 5.623413251903490971e-04
2.492764801307267589e+03 1.000000000000000021e-03
2.528551755407623205e+03 1.778279410038922752e-03
2.571104531743482767e+03 3.162277660168379394e-03
2.623361834852424181e+03 5.623413251903490971e-03
2.686907234241747119e+03 1.000000000000000021e-02
2.764048137062235128e+03 1.778279410038922925e-02
2.863486906748119964e+03 3.162277660168379134e-02
2.989491138814599253e+03 5.623413251903491145e-02
3.137146149903861442e+03 1.000000000000000056e-01
3.305712669986241053e+03 1.778279410038922925e-01
3.498286725147769630e+03 3.162277660168379412e-01
3.716547996049764151e+03 5.623413251903490728e-01
3.963385399001223959e+03 1.000000000000000000e+00
4.246420740297675366e+03 1.778279410038922759e+00
4.561867394539242923e+03 3.162277660168379523e+00
4.952637163924800006e+03 5.623413251903491172e+00
5.462650852321503407e+03 1.000000000000000000e+01
6.174233579065601589e+03 1.778279410038922848e+01
7.233773568934305331e+03 3.162277660168379256e+01
8.780671334264823599e+03 5.623413251903490817e+01
1.072088790088809401e+04 1.000000000000000000e+02
1.304958439795657432e+04 1.778279410038922776e+02
1.582740307298997868e+04 3.162277660168379612e+02
