# Temperature (K), Pressure (bars)
7.509762804873519144e+02 1.000000000000000048e-04
7.974115432152259473e+02 1.778279410038922698e-04
8.438468069262194149e+02 3.162277660168379394e-04
8.893069341821931175e+02 5.623413251903490971e-04
9.347482679762443922e+02 1.000000000000000021e-03
9.821734659412636574e+02 1.778279410038922752e-03
1.034138765193476502e+03 3.162277660168379394e-03
1.093882920690742139e+03 5.623413251903490971e-03
1.164918180033758290e+03 1.000000000000000021e-02
1.253130499765226887e+03 1.778279410038922925e-02
1.368886312460542058e+03 3.162277660168379134e-02
1.540341855290437252e+03 5.623413251903491145e-02
1.776957617629163906e+03 1.000000000000000056e-01
2.037105358527463977e+03 1.778279410038922925e-01
2.288766597926367467e+03 3.162277660168379412e-01
2.524726404668020223e+03 5.623413251903490728e-01
2.744049764010060244e+03 1.000000000000000000e+00
2.954475951068513041e+03 1.778279410038922759e+00
3.164119921185622843e+03 3.162277660168379523e+00
3.379828394409311386e+03 5.623413251903491172e+00
3.607320794611459860e+03 1.000000000000000000e+01
3.852024399582712704e+03 1.778279410038922848e+01
4.122133353656800864e+03 3.162277660168379256e+01
4.421713539154086902e+03 5.623413251903490817e+01
4.758014787658831665e+03 1.000000000000000000e+02
5.134671326240983944e+03 1.778279410038922776e+02
5.574012269004040718e+03 3.162277660168379612e+02
