# Temperature (K), Pressure (bars)
9.736434272740016240e+02 3.162277660168379394e-04
1.032542186392631038e+03 5.623413251903490971e-04
1.091440946740233358e+03 1.000000000000000021e-03
1.147836235733986314e+03 1.778279410038922752e-03
1.203330872473195768e+03 3.162277660168379394e-03
1.261012183790889594e+03 5.623413251903490971e-03
1.325000606691793109e+03 1.000000000000000021e-02
1.408629519974007508e+03 1.778279410038922925e-02
1.558998250306337468e+03 3.162277660168379134e-02
1.793307689753409250e+03 5.623413251903491145e-02
2.050300918248940889e+03 1.000000000000000056e-01
2.288861607363831808e+03 1.778279410038922925e-01
2.510065404012449562e+03 3.162277660168379412e-01
2.717487556021332239e+03 5.623413251903490728e-01
2.918004004252321920e+03 1.000000000000000000e+00
3.117697375148971332e+03 1.778279410038922759e+00
3.322170192250961918e+03 3.162277660168379523e+00
3.536809907214953455e+03 5.623413251903491172e+00
3.766712123779023386e+03 1.000000000000000000e+01
4.017158497817263196e+03 1.778279410038922848e+01
4.296305832833325439e+03 3.162277660168379256e+01
4.609264514975279781e+03 5.623413251903490817e+01
4.964348667920057778e+03 1.000000000000000000e+02
5.365474384652367917e+03 1.778279410038922776e+02
5.839236211500170612e+03 3.162277660168379612e+02
