# Temperature (K), Pressure (bars)
2.147394101004018012e+03 9.999999999999999547e-07
2.180364230379897890e+03 1.778279410038922901e-06
2.213334359759670406e+03 3.162277660168379191e-06
2.242762957802447090e+03 5.623413251903491208e-06
2.265930593691723971e+03 1.000000000000000082e-05
2.280660600565962341e+03 1.778279410038922901e-05
2.291747982545489322e+03 3.162277660168379530e-05
2.309717442730893708e+03 5.623413251903490700e-05
2.340829459553548986e+03 1.000000000000000048e-04
2.384629853559381445e+03 1.778279410038922698e-04
2.438742568869459319e+03 3.162277660168379394e-04
2.502343019654954333e+03 5.623413251903490971e-04
2.576432149292187660e+03 1.000000000000000021e-03
2.662496670221864861e+03 1.778279410038922752e-03
2.760854079537291909e+03 3.162277660168379394e-03
2.870950834221079731e+03 5.623413251903490971e-03
2.990966121537819163e+03 1.000000000000000021e-02
3.123641958613148745e+03 1.778279410038922925e-02
3.282411964013767829e+03 3.162277660168379134e-02
3.492765685615790971e+03 5.623413251903491145e-02
3.722049539310520686e+03 1.000000000000000056e-01
4.022489528387955488e+03 1.778279410038922925e-01
4.473400075417505832e+03 3.162277660168379412e-01
5.251085594907748600e+03 5.623413251903490728e-01
6.459287425473229632e+03 1.000000000000000000e+00
7.988872562339684009e+03 1.778279410038922759e+00
9.560760415510729217e+03 3.162277660168379523e+00
1.120186136852679556e+04 5.623413251903491172e+00
1.319951027005082142e+04 1.000000000000000000e+01
1.573151601284795470e+04 1.778279410038922848e+01
1.892705766309586033e+04 3.162277660168379256e+01
2.293455204275311917e+04 5.623413251903490817e+01
2.790532405472338360e+04 1.000000000000000000e+02
3.397444018370492995e+04 1.778279410038922776e+02
4.121415007110967417e+04 3.162277660168379612e+02
