# Temperature (K), Pressure (bars)
1.027202764742258751e+03 1.000000000000000048e-04
1.075534033971509871e+03 1.778279410038922698e-04
1.123865298094250647e+03 3.162277660168379394e-04
1.159934954635303939e+03 5.623413251903490971e-04
1.189134787741041691e+03 1.000000000000000021e-03
1.218779672364624503e+03 1.778279410038922752e-03
1.246984336473125495e+03 3.162277660168379394e-03
1.282891514306814543e+03 5.623413251903490971e-03
1.347215095753601645e+03 1.000000000000000021e-02
1.443106810861581835e+03 1.778279410038922925e-02
1.558662642612358923e+03 3.162277660168379134e-02
1.684687081884329473e+03 5.623413251903491145e-02
1.804611225541568501e+03 1.000000000000000056e-01
1.917833459469798527e+03 1.778279410038922925e-01
2.034131857774219725e+03 3.162277660168379412e-01
2.195177171356639974e+03 5.623413251903490728e-01
2.442460551581549680e+03 1.000000000000000000e+00
2.705926091329909468e+03 1.778279410038922759e+00
2.940221252123105387e+03 3.162277660168379523e+00
3.171190623595487978e+03 5.623413251903491172e+00
3.406818734334017336e+03 1.000000000000000000e+01
3.653514735780398496e+03 1.778279410038922848e+01
3.919326696911641648e+03 3.162277660168379256e+01
4.209789657870329393e+03 5.623413251903490817e+01
4.531716558037462164e+03 1.000000000000000000e+02
4.888319673568290455e+03 1.778279410038922776e+02
5.299155665388064335e+03 3.162277660168379612e+02
