# Temperature (K), Pressure (bars)
1.562123057893323448e+03 1.778279410038922901e-05
1.582488183050520092e+03 3.162277660168379530e-05
1.602853312198866433e+03 5.623413251903490700e-05
1.630301670385654916e+03 1.000000000000000048e-04
1.663142318502644457e+03 1.778279410038922698e-04
1.701540093247125924e+03 3.162277660168379394e-04
1.743614487636303920e+03 5.623413251903490971e-04
1.785229542890807124e+03 1.000000000000000021e-03
1.827200372811678108e+03 1.778279410038922752e-03
1.869995334575626202e+03 3.162277660168379394e-03
1.913635867363914258e+03 5.623413251903490971e-03
1.959167729605039085e+03 1.000000000000000021e-02
2.007177544746508602e+03 1.778279410038922925e-02
2.059361229306584846e+03 3.162277660168379134e-02
2.117311507187001553e+03 5.623413251903491145e-02
2.186243710959655800e+03 1.000000000000000056e-01
2.268910714227941753e+03 1.778279410038922925e-01
2.384036031941755027e+03 3.162277660168379412e-01
2.555745776350705000e+03 5.623413251903490728e-01
2.758520800050902380e+03 1.000000000000000000e+00
2.963715967216226090e+03 1.778279410038922759e+00
3.173775665761139862e+03 3.162277660168379523e+00
3.392839467655684984e+03 5.623413251903491172e+00
3.624403874019011255e+03 1.000000000000000000e+01
3.872804329283332208e+03 1.778279410038922848e+01
4.144986161751693544e+03 3.162277660168379256e+01
4.447103174271569515e+03 5.623413251903490817e+01
4.786708464727606952e+03 1.000000000000000000e+02
5.167701599995211836e+03 1.778279410038922776e+02
5.612888253817410259e+03 3.162277660168379612e+02
