# Temperature (K), Pressure (bars)
8.958757932569710647e+02 3.162277660168379394e-04
9.420174604782005190e+02 5.623413251903490971e-04
9.881591292576835031e+02 1.000000000000000021e-03
1.033985593793859380e+03 1.778279410038922752e-03
1.080583836693409012e+03 3.162277660168379394e-03
1.128939518667235916e+03 5.623413251903490971e-03
1.179232501596730572e+03 1.000000000000000021e-02
1.232068859839035667e+03 1.778279410038922925e-02
1.290033080624267768e+03 3.162277660168379134e-02
1.362066153743454379e+03 5.623413251903491145e-02
1.456363530267613896e+03 1.000000000000000056e-01
1.579177161792561037e+03 1.778279410038922925e-01
1.728962735926056894e+03 3.162277660168379412e-01
1.916791816795273235e+03 5.623413251903490728e-01
2.160930369947920099e+03 1.000000000000000000e+00
2.429610926086523250e+03 1.778279410038922759e+00
2.689246934553575102e+03 3.162277660168379523e+00
2.940744418734751889e+03 5.623413251903491172e+00
3.189423168846946282e+03 1.000000000000000000e+01
3.442442277079494488e+03 1.778279410038922848e+01
3.708895495471780123e+03 3.162277660168379256e+01
3.994668799500322621e+03 5.623413251903490817e+01
4.306599711841933640e+03 1.000000000000000000e+02
4.648145618671799639e+03 1.778279410038922776e+02
5.036486476247455357e+03 3.162277660168379612e+02
