# Temperature (K), Pressure (bars)
2.314227280919030363e+03 9.999999999999999547e-07
2.339482042708504196e+03 1.778279410038922901e-06
2.364736804497978483e+03 3.162277660168379191e-06
2.389883292921885186e+03 5.623413251903491208e-06
2.416724064601131886e+03 1.000000000000000082e-05
2.444705312397651596e+03 1.778279410038922901e-05
2.473292974312429578e+03 3.162277660168379530e-05
2.501633723030127840e+03 5.623413251903490700e-05
2.527194944783330357e+03 1.000000000000000048e-04
2.546931634469689016e+03 1.778279410038922698e-04
2.558600664831538779e+03 3.162277660168379394e-04
2.566061584261549797e+03 5.623413251903490971e-04
2.578868041415561038e+03 1.000000000000000021e-03
2.604428824122387596e+03 1.778279410038922752e-03
2.644094485379297566e+03 3.162277660168379394e-03
2.697412835214316601e+03 5.623413251903490971e-03
2.764241975952249504e+03 1.000000000000000021e-02
2.848425702614679722e+03 1.778279410038922925e-02
2.957197551398057385e+03 3.162277660168379134e-02
3.088880732566478400e+03 5.623413251903491145e-02
3.238803511308763518e+03 1.000000000000000056e-01
3.409589457566805777e+03 1.778279410038922925e-01
3.607481374412765035e+03 3.162277660168379412e-01
3.840010038501883173e+03 5.623413251903490728e-01
4.119262470231482439e+03 1.000000000000000000e+00
4.421629606483116731e+03 1.778279410038922759e+00
4.801614322737357725e+03 3.162277660168379523e+00
5.313581246783794086e+03 5.623413251903491172e+00
6.070520523985662294e+03 1.000000000000000000e+01
7.251510284059076184e+03 1.778279410038922848e+01
8.889421293134042571e+03 3.162277660168379256e+01
1.085065104520558089e+04 5.623413251903490817e+01
1.320350509876032447e+04 1.000000000000000000e+02
1.607614045204525064e+04 1.778279410038922776e+02
1.950253533906299344e+04 3.162277660168379612e+02
