# Temperature (K), Pressure (bars)
2.163656306493838656e+03 9.999999999999999547e-07
2.178569737920412535e+03 1.778279410038922901e-06
2.193483169346985960e+03 3.162277660168379191e-06
2.223409160126173902e+03 5.623413251903491208e-06
2.260387212350420214e+03 1.000000000000000082e-05
2.300504475231742617e+03 1.778279410038922901e-05
2.345392194485234995e+03 3.162277660168379530e-05
2.392765943814343245e+03 5.623413251903490700e-05
2.440577438923142836e+03 1.000000000000000048e-04
2.486971702480740987e+03 1.778279410038922698e-04
2.530084667324240854e+03 3.162277660168379394e-04
2.569116923735112778e+03 5.623413251903490971e-04
2.604819970175366507e+03 1.000000000000000021e-03
2.639011740791720058e+03 1.778279410038922752e-03
2.675524623065511150e+03 3.162277660168379394e-03
2.718362063265754387e+03 5.623413251903490971e-03
2.773076802942078757e+03 1.000000000000000021e-02
2.837337191520686247e+03 1.778279410038922925e-02
2.917069420868693669e+03 3.162277660168379134e-02
3.033389257285716212e+03 5.623413251903491145e-02
3.181268804552266829e+03 1.000000000000000056e-01
3.350614379856839605e+03 1.778279410038922925e-01
3.546760355020244788e+03 3.162277660168379412e-01
3.772947374679942641e+03 5.623413251903490728e-01
4.033686375318891351e+03 1.000000000000000000e+00
4.340366234336430352e+03 1.778279410038922759e+00
4.686893533836190727e+03 3.162277660168379523e+00
5.133003171531792759e+03 5.623413251903491172e+00
5.751148909629714581e+03 1.000000000000000000e+01
6.680621356924917563e+03 1.778279410038922848e+01
8.083068922923870559e+03 3.162277660168379256e+01
9.890548080738990393e+03 5.623413251903490817e+01
1.000000000000000000e+04 1.000000000000000000e+02
1.000000000000000000e+04 1.778279410038922776e+02
1.000000000000000000e+04 3.162277660168379612e+02
