# Temperature (K), Pressure (bars)
1.599154934598050204e+03 9.999999999999999547e-07
1.607597761494359929e+03 1.778279410038922901e-06
1.616040588395720533e+03 3.162277660168379191e-06
1.629750338004773994e+03 5.623413251903491208e-06
1.649185819580206953e+03 1.000000000000000082e-05
1.674638741137481475e+03 1.778279410038922901e-05
1.708148322388667111e+03 3.162277660168379530e-05
1.747653911231193661e+03 5.623413251903490700e-05
1.790754735221544479e+03 1.000000000000000048e-04
1.838452300078769895e+03 1.778279410038922698e-04
1.890212572326258851e+03 3.162277660168379394e-04
1.945138858093121826e+03 5.623413251903490971e-04
2.003330107864089086e+03 1.000000000000000021e-03
2.065758816746755201e+03 1.778279410038922752e-03
2.132960172748152218e+03 3.162277660168379394e-03
2.209749324982262351e+03 5.623413251903490971e-03
2.309466308926303100e+03 1.000000000000000021e-02
2.433160897610961001e+03 1.778279410038922925e-02
2.567374124466966350e+03 3.162277660168379134e-02
2.706887021352175907e+03 5.623413251903491145e-02
2.854017911149019710e+03 1.000000000000000056e-01
3.010750075789411312e+03 1.778279410038922925e-01
3.179187744061940975e+03 3.162277660168379412e-01
3.361188906785226209e+03 5.623413251903490728e-01
3.558066895801580813e+03 1.000000000000000000e+00
3.771630690565851182e+03 1.778279410038922759e+00
4.005677271663470947e+03 3.162277660168379523e+00
4.266291276065643615e+03 5.623413251903491172e+00
4.561839689820981221e+03 1.000000000000000000e+01
4.903961352800421082e+03 1.778279410038922848e+01
5.310893672652063287e+03 3.162277660168379256e+01
5.806870164800466227e+03 5.623413251903490817e+01
6.431113179732499702e+03 1.000000000000000000e+02
7.250279522909196203e+03 1.778279410038922776e+02
8.374264542375283781e+03 3.162277660168379612e+02
