# Temperature (K), Pressure (bars)
1.411230708378402142e+03 1.778279410038922901e-05
1.439797896213806780e+03 3.162277660168379530e-05
1.468660264949670363e+03 5.623413251903490700e-05
1.511438242767828797e+03 1.000000000000000048e-04
1.569819704812947293e+03 1.778279410038922698e-04
1.630404951489307223e+03 3.162277660168379394e-04
1.686614559153508253e+03 5.623413251903490971e-04
1.744250474823548302e+03 1.000000000000000021e-03
1.806323723804885958e+03 1.778279410038922752e-03
1.871856873352792263e+03 3.162277660168379394e-03
1.940538375666932097e+03 5.623413251903490971e-03
2.016480154698040678e+03 1.000000000000000021e-02
2.099306650405561413e+03 1.778279410038922925e-02
2.202380762787769072e+03 3.162277660168379134e-02
2.347379378575396458e+03 5.623413251903491145e-02
2.513405622295005287e+03 1.000000000000000056e-01
2.678128487920138923e+03 1.778279410038922925e-01
2.845674694023694428e+03 3.162277660168379412e-01
3.019598426724631281e+03 5.623413251903490728e-01
3.202802571617657122e+03 1.000000000000000000e+00
3.397411774925597911e+03 1.778279410038922759e+00
3.605371428336516146e+03 3.162277660168379523e+00
3.829761278130773917e+03 5.623413251903491172e+00
4.075252539898020586e+03 1.000000000000000000e+01
4.347783878291517794e+03 1.778279410038922848e+01
4.654679681718022039e+03 3.162277660168379256e+01
5.005810194410546501e+03 5.623413251903490817e+01
5.418560725718216418e+03 1.000000000000000000e+02
5.907109108650345661e+03 1.778279410038922776e+02
6.497476616546006881e+03 3.162277660168379612e+02
