# Temperature (K), Pressure (bars)
7.993198871271099506e+02 3.162277660168379394e-04
8.463264667771273935e+02 5.623413251903490971e-04
8.933330475676392552e+02 1.000000000000000021e-03
9.392640729941549580e+02 1.778279410038922752e-03
9.849818627286182391e+02 3.162277660168379394e-03
1.031679085855965923e+03 5.623413251903490971e-03
1.080890129733393906e+03 1.000000000000000021e-02
1.135676463507458493e+03 1.778279410038922925e-02
1.200573687685801815e+03 3.162277660168379134e-02
1.281208695282412009e+03 5.623413251903491145e-02
1.390465040788527403e+03 1.000000000000000056e-01
1.546611666641722650e+03 1.778279410038922925e-01
1.762926815771919564e+03 3.162277660168379412e-01
2.026720707372529205e+03 5.623413251903490728e-01
2.298540509850476610e+03 1.000000000000000000e+00
2.557208135879313431e+03 1.778279410038922759e+00
2.804420676820623157e+03 3.162277660168379523e+00
3.044653383725654749e+03 5.623413251903491172e+00
3.285200837186426725e+03 1.000000000000000000e+01
3.533553254621851011e+03 1.778279410038922848e+01
3.798721689819929907e+03 3.162277660168379256e+01
4.085666135216333714e+03 5.623413251903490817e+01
4.401094044297398796e+03 1.000000000000000000e+02
4.748220877333439603e+03 1.778279410038922776e+02
5.145244527769770684e+03 3.162277660168379612e+02
