# Temperature (K), Pressure (bars)
8.904626201706309985e+02 5.623413251903490971e-04
9.292079731595919156e+02 1.000000000000000021e-03
9.679533259395592495e+02 1.778279410038922752e-03
1.005333868313824837e+03 3.162277660168379394e-03
1.043780183800217856e+03 5.623413251903490971e-03
1.084586569501665736e+03 1.000000000000000021e-02
1.127142331319140567e+03 1.778279410038922925e-02
1.172200955608958793e+03 3.162277660168379134e-02
1.220510490130753169e+03 5.623413251903491145e-02
1.275552346359503645e+03 1.000000000000000056e-01
1.338532914461106657e+03 1.778279410038922925e-01
1.424772127824251129e+03 3.162277660168379412e-01
1.582778198972809832e+03 5.623413251903490728e-01
1.822408671912841328e+03 1.000000000000000000e+00
2.097159415029928823e+03 1.778279410038922759e+00
2.378094414886452796e+03 3.162277660168379523e+00
2.656808849411280335e+03 5.623413251903491172e+00
2.928816217505506302e+03 1.000000000000000000e+01
3.197835789198262319e+03 1.778279410038922848e+01
3.472419856733501547e+03 3.162277660168379256e+01
3.759500271490197520e+03 5.623413251903490817e+01
4.066555221450984391e+03 1.000000000000000000e+02
4.397446635376217273e+03 1.778279410038922776e+02
4.768073667041670888e+03 3.162277660168379612e+02
