# Temperature (K), Pressure (bars)
1.113476836167098327e+03 1.778279410038922901e-05
1.153862277687672076e+03 3.162277660168379530e-05
1.194470246741219398e+03 5.623413251903490700e-05
1.238173181337138203e+03 1.000000000000000048e-04
1.285739479507143415e+03 1.778279410038922698e-04
1.336646826259795944e+03 3.162277660168379394e-04
1.391059917827830759e+03 5.623413251903490971e-04
1.449716461018652353e+03 1.000000000000000021e-03
1.513582786547266778e+03 1.778279410038922752e-03
1.583500197349105747e+03 3.162277660168379394e-03
1.665321114662109721e+03 5.623413251903490971e-03
1.760877312434324040e+03 1.000000000000000021e-02
1.886618370511112971e+03 1.778279410038922925e-02
2.064268392197886442e+03 3.162277660168379134e-02
2.263315848417530560e+03 5.623413251903491145e-02
2.451209138686938331e+03 1.000000000000000056e-01
2.630802704458390508e+03 1.778279410038922925e-01
2.808280069860988078e+03 3.162277660168379412e-01
2.988256974796863233e+03 5.623413251903490728e-01
3.174100182000709538e+03 1.000000000000000000e+00
3.368498794514524434e+03 1.778279410038922759e+00
3.574377753012026460e+03 3.162277660168379523e+00
3.795659289910024654e+03 5.623413251903491172e+00
4.037215159839201988e+03 1.000000000000000000e+01
4.304736711259180083e+03 1.778279410038922848e+01
4.605124265852367898e+03 3.162277660168379256e+01
4.947605495928231903e+03 5.623413251903490817e+01
5.348829598552574680e+03 1.000000000000000000e+02
5.821008649784091176e+03 1.778279410038922776e+02
6.387194209442250212e+03 3.162277660168379612e+02
