# Temperature (K), Pressure (bars)
8.887977860582308267e+02 1.000000000000000021e-03
9.252739501400687914e+02 1.778279410038922752e-03
9.617501141006239322e+02 3.162277660168379394e-03
9.965325690298371910e+02 5.623413251903490971e-03
1.031370621369169839e+03 1.000000000000000021e-02
1.067612249479930369e+03 1.778279410038922925e-02
1.105536803392383035e+03 3.162277660168379134e-02
1.146319643503922862e+03 5.623413251903491145e-02
1.192994726074744221e+03 1.000000000000000056e-01
1.249106294592603945e+03 1.778279410038922925e-01
1.319104324565533716e+03 3.162277660168379412e-01
1.411149656466878923e+03 5.623413251903490728e-01
1.535212056920366649e+03 1.000000000000000000e+00
1.704793607870590904e+03 1.778279410038922759e+00
1.938964077818462329e+03 3.162277660168379523e+00
2.227813398873219739e+03 5.623413251903491172e+00
2.529691831013447882e+03 1.000000000000000000e+01
2.826204572317610655e+03 1.778279410038922848e+01
3.123278213645884534e+03 3.162277660168379256e+01
3.423265623333962139e+03 5.623413251903490817e+01
3.733724323015277605e+03 1.000000000000000000e+02
4.059634304001690907e+03 1.778279410038922776e+02
4.415802029432291420e+03 3.162277660168379612e+02
