# Temperature (K), Pressure (bars)
7.851161079227164237e+02 5.623413251903490971e-04
8.251087235469426560e+02 1.000000000000000021e-03
8.651013404632457195e+02 1.778279410038922752e-03
9.054670624101499925e+02 3.162277660168379394e-03
9.460662409710836300e+02 5.623413251903490971e-03
9.872057814822373984e+02 1.000000000000000021e-02
1.029415873917558883e+03 1.778279410038922925e-02
1.074042385871445958e+03 3.162277660168379134e-02
1.124332032953136604e+03 5.623413251903491145e-02
1.185080601907097844e+03 1.000000000000000056e-01
1.261858499371284097e+03 1.778279410038922925e-01
1.362763718433584472e+03 3.162277660168379412e-01
1.502067681558826507e+03 5.623413251903490728e-01
1.704171438451216318e+03 1.000000000000000000e+00
1.968347258069682084e+03 1.778279410038922759e+00
2.254821524310085351e+03 3.162277660168379523e+00
2.539771443036966502e+03 5.623413251903491172e+00
2.820796684110873230e+03 1.000000000000000000e+01
3.097623457187936310e+03 1.778279410038922848e+01
3.377536242318097720e+03 3.162277660168379256e+01
3.667041844311620935e+03 5.623413251903490817e+01
3.973947496132594097e+03 1.000000000000000000e+02
4.302558664205938840e+03 1.778279410038922776e+02
4.668180593008779397e+03 3.162277660168379612e+02
