# Temperature (K), Pressure (bars)
1.010623203841435952e+03 3.162277660168379394e-04
1.062994583525363396e+03 5.623413251903490971e-04
1.115365961404190102e+03 1.000000000000000021e-03
1.154428338541789572e+03 1.778279410038922752e-03
1.185268899366579035e+03 3.162277660168379394e-03
1.215267652279228969e+03 5.623413251903490971e-03
1.244834598211097045e+03 1.000000000000000021e-02
1.275912635823584651e+03 1.778279410038922925e-02
1.311050637743831658e+03 3.162277660168379134e-02
1.350397645215475677e+03 5.623413251903491145e-02
1.393307493463101537e+03 1.000000000000000056e-01
1.442143778912299695e+03 1.778279410038922925e-01
1.513262000448487470e+03 3.162277660168379412e-01
1.624164545686665406e+03 5.623413251903490728e-01
1.779514559533128704e+03 1.000000000000000000e+00
2.000472288502816582e+03 1.778279410038922759e+00
2.285348892292724031e+03 3.162277660168379523e+00
2.579656639018459828e+03 5.623413251903491172e+00
2.858717210103514390e+03 1.000000000000000000e+01
3.132994078018598884e+03 1.778279410038922848e+01
3.410875766581508287e+03 3.162277660168379256e+01
3.699399308282639140e+03 5.623413251903490817e+01
4.006247708793922357e+03 1.000000000000000000e+02
4.335674147869072840e+03 1.778279410038922776e+02
4.703007706135125773e+03 3.162277660168379612e+02
