# Temperature (K), Pressure (bars)
2.030178979002868800e+03 9.999999999999999547e-07
2.060269702420655449e+03 1.778279410038922901e-06
2.090360425838533956e+03 3.162277660168379191e-06
2.126494683259019439e+03 5.623413251903491208e-06
2.167695384324816587e+03 1.000000000000000082e-05
2.209924820919331978e+03 1.778279410038922901e-05
2.250252555614974881e+03 3.162277660168379530e-05
2.287251561132741699e+03 5.623413251903490700e-05
2.320570237324540358e+03 1.000000000000000048e-04
2.350711847265323740e+03 1.778279410038922698e-04
2.379379361221810541e+03 3.162277660168379394e-04
2.408922244591313756e+03 5.623413251903490971e-04
2.441294014518099630e+03 1.000000000000000021e-03
2.478385257139420901e+03 1.778279410038922752e-03
2.521888972442008708e+03 3.162277660168379394e-03
2.574925774599083525e+03 5.623413251903490971e-03
2.638970873433208453e+03 1.000000000000000021e-02
2.720313935169940123e+03 1.778279410038922925e-02
2.828732620092030174e+03 3.162277660168379134e-02
2.958670660539934033e+03 5.623413251903491145e-02
3.103962338707911840e+03 1.000000000000000056e-01
3.268129703432229689e+03 1.778279410038922925e-01
3.454130153630952009e+03 3.162277660168379412e-01
3.663848764629254219e+03 5.623413251903490728e-01
3.899381261248740429e+03 1.000000000000000000e+00
4.166247504263224982e+03 1.778279410038922759e+00
4.475965305248832010e+03 3.162277660168379523e+00
4.834624169178474403e+03 5.623413251903491172e+00
5.286183830755775489e+03 1.000000000000000000e+01
5.884427946510005313e+03 1.778279410038922848e+01
6.722081836313790518e+03 3.162277660168379256e+01
7.957161800315906476e+03 5.623413251903490817e+01
9.684237377280865985e+03 1.000000000000000000e+02
1.179040115243289983e+04 1.778279410038922776e+02
1.429624012117387065e+04 3.162277660168379612e+02
