# Temperature (K), Pressure (bars)
1.035629569462766540e+03 3.162277660168379394e-03
1.083225300368482067e+03 5.623413251903490971e-03
1.130821031569932757e+03 1.000000000000000021e-02
1.175201569088926135e+03 1.778279410038922925e-02
1.220313898178767431e+03 3.162277660168379134e-02
1.267815557499687429e+03 5.623413251903491145e-02
1.318865786514060346e+03 1.000000000000000056e-01
1.380620665018886029e+03 1.778279410038922925e-01
1.463968953411698521e+03 3.162277660168379412e-01
1.572191128348835718e+03 5.623413251903490728e-01
1.710002321891103293e+03 1.000000000000000000e+00
1.870083716415093022e+03 1.778279410038922759e+00
2.074616249994996906e+03 3.162277660168379523e+00
2.359469083403615059e+03 5.623413251903491172e+00
2.667941467181518874e+03 1.000000000000000000e+01
2.957467176552999263e+03 1.778279410038922848e+01
3.246359684865715280e+03 3.162277660168379256e+01
3.540956143759597126e+03 5.623413251903490817e+01
3.849276776813829656e+03 1.000000000000000000e+02
4.176325454588100911e+03 1.778279410038922776e+02
4.536749684377557969e+03 3.162277660168379612e+02
