# Temperature (K), Pressure (bars)
1.251294041279126304e+03 5.623413251903491208e-06
1.272467478750167174e+03 1.000000000000000082e-05
1.301407190396688065e+03 1.778279410038922901e-05
1.337000370368261883e+03 3.162277660168379530e-05
1.378201257360447698e+03 5.623413251903490700e-05
1.426242565319040750e+03 1.000000000000000048e-04
1.481183915062695178e+03 1.778279410038922698e-04
1.542686695392737192e+03 3.162277660168379394e-04
1.609906101263095024e+03 5.623413251903490971e-04
1.683414535743349461e+03 1.000000000000000021e-03
1.774335855025481806e+03 1.778279410038922752e-03
1.883386904241669527e+03 3.162277660168379394e-03
2.004915918526997984e+03 5.623413251903490971e-03
2.148886208241885015e+03 1.000000000000000021e-02
2.306447591992785874e+03 1.778279410038922925e-02
2.462015956010150148e+03 3.162277660168379134e-02
2.617265471377279027e+03 5.623413251903491145e-02
2.775371507921890498e+03 1.000000000000000056e-01
2.938951979488134384e+03 1.778279410038922925e-01
3.110272291114924883e+03 3.162277660168379412e-01
3.291190067169161466e+03 5.623413251903490728e-01
3.483340666722893729e+03 1.000000000000000000e+00
3.689218699144217680e+03 1.778279410038922759e+00
3.913006729480195645e+03 3.162277660168379523e+00
4.160354818438680013e+03 5.623413251903491172e+00
4.438295726198628472e+03 1.000000000000000000e+01
4.756186667470984503e+03 1.778279410038922848e+01
5.129203766885216282e+03 3.162277660168379256e+01
5.574155950349194427e+03 5.623413251903490817e+01
6.118656332063734226e+03 1.000000000000000000e+02
6.805314573108131299e+03 1.778279410038922776e+02
7.703262879246892226e+03 3.162277660168379612e+02
