# Temperature (K), Pressure (bars)
1.624189306147534580e+03 9.999999999999999547e-07
1.710024460417605269e+03 1.778279410038922901e-06
1.795859614687742578e+03 3.162277660168379191e-06
1.872423617672084674e+03 5.623413251903491208e-06
1.938142305299751115e+03 1.000000000000000082e-05
1.992985239961585421e+03 1.778279410038922901e-05
2.038673045740523776e+03 3.162277660168379530e-05
2.077893725545367033e+03 5.623413251903490700e-05
2.113194877993111731e+03 1.000000000000000048e-04
2.147556794839439135e+03 1.778279410038922698e-04
2.183183693077504358e+03 3.162277660168379394e-04
2.221947896306293842e+03 5.623413251903490971e-04
2.266013543162270253e+03 1.000000000000000021e-03
2.317449848935094906e+03 1.778279410038922752e-03
2.378670402846793422e+03 3.162277660168379394e-03
2.450999007887571679e+03 5.623413251903490971e-03
2.538971780092662812e+03 1.000000000000000021e-02
2.647475588888210950e+03 1.778279410038922925e-02
2.771495604533021833e+03 3.162277660168379134e-02
2.908096499332651547e+03 5.623413251903491145e-02
3.060812332737997167e+03 1.000000000000000056e-01
3.231740340214296339e+03 1.778279410038922925e-01
3.421361304031710006e+03 3.162277660168379412e-01
3.629527444124653812e+03 5.623413251903490728e-01
3.858293708077353585e+03 1.000000000000000000e+00
4.113762569325979712e+03 1.778279410038922759e+00
4.406484713284444297e+03 3.162277660168379523e+00
4.743633641327965051e+03 5.623413251903491172e+00
5.159178188472520560e+03 1.000000000000000000e+01
5.693969549836427177e+03 1.778279410038922848e+01
6.419051554090196078e+03 3.162277660168379256e+01
7.456960200199069732e+03 5.623413251903490817e+01
8.974122087616689896e+03 1.000000000000000000e+02
1.091729613288231121e+04 1.778279410038922776e+02
1.323757223963857723e+04 3.162277660168379612e+02
