# Temperature (K), Pressure (bars)
1.779984360713929846e+03 1.000000000000000082e-05
1.791375661861823119e+03 1.778279410038922901e-05
1.802766967541703252e+03 3.162277660168379530e-05
1.821679901659263805e+03 5.623413251903490700e-05
1.846275532714880910e+03 1.000000000000000048e-04
1.874338377329223931e+03 1.778279410038922698e-04
1.907106334308178702e+03 3.162277660168379394e-04
1.942307615835757133e+03 5.623413251903490971e-04
1.977264642393303575e+03 1.000000000000000021e-03
2.012329822668113820e+03 1.778279410038922752e-03
2.047659640866612790e+03 3.162277660168379394e-03
2.083725754221483385e+03 5.623413251903490971e-03
2.121975460970798849e+03 1.000000000000000021e-02
2.163000363491490589e+03 1.778279410038922925e-02
2.208181004837650562e+03 3.162277660168379134e-02
2.259630481856996084e+03 5.623413251903491145e-02
2.324851738537713572e+03 1.000000000000000056e-01
2.407907002499724513e+03 1.778279410038922925e-01
2.532139529154682350e+03 3.162277660168379412e-01
2.716179619376751816e+03 5.623413251903490728e-01
2.917628812240714979e+03 1.000000000000000000e+00
3.113733328418210931e+03 1.778279410038922759e+00
3.318929280137233945e+03 3.162277660168379523e+00
3.536715185320893852e+03 5.623413251903491172e+00
3.769993721619684948e+03 1.000000000000000000e+01
4.023185119358880456e+03 1.778279410038922848e+01
4.303465632106984231e+03 3.162277660168379256e+01
4.617610205715818665e+03 5.623413251903490817e+01
4.974202585653303686e+03 1.000000000000000000e+02
5.377379617934777343e+03 1.778279410038922776e+02
5.854289426084968909e+03 3.162277660168379612e+02
