# Temperature (K), Pressure (bars)
1.336533166877671647e+03 1.778279410038922901e-05
1.361563347130648253e+03 3.162277660168379530e-05
1.386593532605080327e+03 5.623413251903490700e-05
1.424701622876888223e+03 1.000000000000000048e-04
1.480697454368137414e+03 1.778279410038922698e-04
1.537878070721611039e+03 3.162277660168379394e-04
1.585532535938662704e+03 5.623413251903490971e-04
1.631541716254415178e+03 1.000000000000000021e-03
1.681253634554328528e+03 1.778279410038922752e-03
1.734166491932554436e+03 3.162277660168379394e-03
1.789908347996785551e+03 5.623413251903490971e-03
1.849121809682842013e+03 1.000000000000000021e-02
1.913159660786055611e+03 1.778279410038922925e-02
1.982314151254825674e+03 3.162277660168379134e-02
2.063605312340976070e+03 5.623413251903491145e-02
2.157130945151229753e+03 1.000000000000000056e-01
2.283680304279919255e+03 1.778279410038922925e-01
2.470624773693652060e+03 3.162277660168379412e-01
2.677698592370998995e+03 5.623413251903490728e-01
2.875013333866006633e+03 1.000000000000000000e+00
3.075113037725359391e+03 1.778279410038922759e+00
3.282533422088269617e+03 3.162277660168379523e+00
3.500256934831247236e+03 5.623413251903491172e+00
3.732036898307768752e+03 1.000000000000000000e+01
3.982928321172792948e+03 1.778279410038922848e+01
4.260464933891341389e+03 3.162277660168379256e+01
4.570855397831105620e+03 5.623413251903490817e+01
4.922293319012465872e+03 1.000000000000000000e+02
5.318516735256202082e+03 1.778279410038922776e+02
5.785970520440954715e+03 3.162277660168379612e+02
