# Temperature (K), Pressure (bars)
9.135094126788455924e+02 1.000000000000000021e-03
9.523647358933382066e+02 1.778279410038922752e-03
9.912200593844233936e+02 3.162277660168379394e-03
1.029226675135493679e+03 5.623413251903490971e-03
1.068124330071430904e+03 1.000000000000000021e-02
1.108665630748422927e+03 1.778279410038922925e-02
1.150942392916071412e+03 3.162277660168379134e-02
1.195908883611153442e+03 5.623413251903491145e-02
1.246128981991789715e+03 1.000000000000000056e-01
1.304209090872199795e+03 1.778279410038922925e-01
1.374930487898819365e+03 3.162277660168379412e-01
1.483854684832515886e+03 5.623413251903490728e-01
1.642832959628063236e+03 1.000000000000000000e+00
1.855380055946930725e+03 1.778279410038922759e+00
2.130633013557639970e+03 3.162277660168379523e+00
2.428454570784759198e+03 5.623413251903491172e+00
2.717116797231688906e+03 1.000000000000000000e+01
3.001740429245272935e+03 1.778279410038922848e+01
3.287667055873595928e+03 3.162277660168379256e+01
3.580572315781802899e+03 5.623413251903490817e+01
3.888402222436374814e+03 1.000000000000000000e+02
4.216266744008667047e+03 1.778279410038922776e+02
4.578462548790083019e+03 3.162277660168379612e+02
