# Temperature (K), Pressure (bars)
1.777631997284573345e+03 9.999999999999999547e-07
1.802438005318088017e+03 1.778279410038922901e-06
1.827244013351603144e+03 3.162277660168379191e-06
1.853883197141821256e+03 5.623413251903491208e-06
1.883851751157392528e+03 1.000000000000000082e-05
1.918946825687024102e+03 1.778279410038922901e-05
1.957879326515781486e+03 3.162277660168379530e-05
1.999796037606081882e+03 5.623413251903490700e-05
2.045479452363385917e+03 1.000000000000000048e-04
2.095013132218601640e+03 1.778279410038922698e-04
2.148754930097457418e+03 3.162277660168379394e-04
2.208000894386916571e+03 5.623413251903490971e-04
2.274237387503935224e+03 1.000000000000000021e-03
2.351829364940065261e+03 1.778279410038922752e-03
2.445162614685328663e+03 3.162277660168379394e-03
2.550819088765260403e+03 5.623413251903490971e-03
2.665247344863798389e+03 1.000000000000000021e-02
2.789547038236649769e+03 1.778279410038922925e-02
2.925695917170091889e+03 3.162277660168379134e-02
3.076654915823636202e+03 5.623413251903491145e-02
3.246302069993510486e+03 1.000000000000000056e-01
3.441762853049915975e+03 1.778279410038922925e-01
3.641230916195862392e+03 3.162277660168379412e-01
3.868952243044779607e+03 5.623413251903490728e-01
4.132967374730827942e+03 1.000000000000000000e+00
4.439105808622400218e+03 1.778279410038922759e+00
4.826039380461739711e+03 3.162277660168379523e+00
5.352227991136769560e+03 5.623413251903491172e+00
6.138648051187699821e+03 1.000000000000000000e+01
7.364016878777679267e+03 1.778279410038922848e+01
9.034531853648424658e+03 3.162277660168379256e+01
1.000000000000000000e+04 5.623413251903490817e+01
1.000000000000000000e+04 1.000000000000000000e+02
1.000000000000000000e+04 1.778279410038922776e+02
1.000000000000000000e+04 3.162277660168379612e+02
