# Temperature (K), Pressure (bars)
1.194038453662262555e+03 1.000000000000000082e-05
1.231508470778843957e+03 1.778279410038922901e-05
1.268978496238748676e+03 3.162277660168379530e-05
1.335069716401222195e+03 5.623413251903490700e-05
1.466990491956625419e+03 1.000000000000000048e-04
1.593274224512445016e+03 1.778279410038922698e-04
1.672506078034852635e+03 3.162277660168379394e-04
1.742337826898356980e+03 5.623413251903490971e-04
1.804603992160616599e+03 1.000000000000000021e-03
1.851775348265723096e+03 1.778279410038922752e-03
1.891577888512308164e+03 3.162277660168379394e-03
1.926949141448490309e+03 5.623413251903490971e-03
1.959003876364068446e+03 1.000000000000000021e-02
1.990496136451856501e+03 1.778279410038922925e-02
2.024168442490058624e+03 3.162277660168379134e-02
2.064716683684025611e+03 5.623413251903491145e-02
2.114789707203677153e+03 1.000000000000000056e-01
2.180866757744163351e+03 1.778279410038922925e-01
2.260043110073941989e+03 3.162277660168379412e-01
2.383425707434998458e+03 5.623413251903490728e-01
2.591216761543235407e+03 1.000000000000000000e+00
2.826310464078883342e+03 1.778279410038922759e+00
3.047270550737756366e+03 3.162277660168379523e+00
3.271605215350548406e+03 5.623413251903491172e+00
3.504838420135442448e+03 1.000000000000000000e+01
3.751865221422974173e+03 1.778279410038922848e+01
4.019867525035899234e+03 3.162277660168379256e+01
4.314777477702064971e+03 5.623413251903490817e+01
4.643757179469630501e+03 1.000000000000000000e+02
5.010402965413760285e+03 1.778279410038922776e+02
5.435279532616572396e+03 3.162277660168379612e+02
