# Temperature (K), Pressure (bars)
1.366040671384613461e+03 9.999999999999999547e-07
1.448724514134538595e+03 1.778279410038922901e-06
1.531408356884464411e+03 3.162277660168379191e-06
1.605480671509995773e+03 5.623413251903491208e-06
1.665157065106634263e+03 1.000000000000000082e-05
1.719781188321374430e+03 1.778279410038922901e-05
1.772451826761795473e+03 3.162277660168379530e-05
1.824454993203027698e+03 5.623413251903490700e-05
1.877849774185419164e+03 1.000000000000000048e-04
1.931863004391035702e+03 1.778279410038922698e-04
1.987586311071539967e+03 3.162277660168379394e-04
2.046550057725565239e+03 5.623413251903490971e-04
2.110180822121029905e+03 1.000000000000000021e-03
2.182046765794470048e+03 1.778279410038922752e-03
2.271612828158134107e+03 3.162277660168379394e-03
2.381748667771610599e+03 5.623413251903490971e-03
2.504056844280397399e+03 1.000000000000000021e-02
2.633808264540306482e+03 1.778279410038922925e-02
2.772040203473641213e+03 3.162277660168379134e-02
2.920269286205903882e+03 5.623413251903491145e-02
3.080657051518079243e+03 1.000000000000000056e-01
3.255602382446011234e+03 1.778279410038922925e-01
3.447000751539787416e+03 3.162277660168379412e-01
3.656511484551433114e+03 5.623413251903490728e-01
3.887574824692743277e+03 1.000000000000000000e+00
4.147286116604478593e+03 1.778279410038922759e+00
4.447272257797604652e+03 3.162277660168379523e+00
4.796657111658725626e+03 5.623413251903491172e+00
5.233427233748183426e+03 1.000000000000000000e+01
5.807335609339976145e+03 1.778279410038922848e+01
6.601491486680262824e+03 3.162277660168379256e+01
7.760023077958767317e+03 5.623413251903490817e+01
9.414721672270632553e+03 1.000000000000000000e+02
1.146234538376823912e+04 1.778279410038922776e+02
1.389875733529158424e+04 3.162277660168379612e+02
