# Temperature (K), Pressure (bars)
9.799350647759904405e+02 1.778279410038922901e-05
1.031617056128520517e+03 3.162277660168379530e-05
1.083299048608264229e+03 5.623413251903490700e-05
1.131879895403033515e+03 1.000000000000000048e-04
1.177772099845604316e+03 1.778279410038922698e-04
1.225676770771414112e+03 3.162277660168379394e-04
1.278977242275350136e+03 5.623413251903490971e-04
1.342525507684649483e+03 1.000000000000000021e-03
1.425649042205408250e+03 1.778279410038922752e-03
1.521404925301630328e+03 3.162277660168379394e-03
1.619485749415378677e+03 5.623413251903490971e-03
1.727464064907495413e+03 1.000000000000000021e-02
1.843942572268394315e+03 1.778279410038922925e-02
1.956455613936186182e+03 3.162277660168379134e-02
2.095321776698765007e+03 5.623413251903491145e-02
2.290826194178114747e+03 1.000000000000000056e-01
2.496698659262131514e+03 1.778279410038922925e-01
2.684800602223900569e+03 3.162277660168379412e-01
2.871128617910801495e+03 5.623413251903490728e-01
3.060614417164017595e+03 1.000000000000000000e+00
3.256058062436564796e+03 1.778279410038922759e+00
3.460499797188381308e+03 3.162277660168379523e+00
3.678090069694042995e+03 5.623413251903491172e+00
3.913684345105588818e+03 1.000000000000000000e+01
4.172654599592406157e+03 1.778279410038922848e+01
4.461271611432963255e+03 3.162277660168379256e+01
4.787716649526789297e+03 5.623413251903490817e+01
5.167070891026146455e+03 1.000000000000000000e+02
5.608495739222049451e+03 1.778279410038922776e+02
6.131014536103132741e+03 3.162277660168379612e+02
