# Temperature (K), Pressure (bars)
1.037889210677926258e+03 1.000000000000000048e-04
1.098241021465176800e+03 1.778279410038922698e-04
1.158592835802274749e+03 3.162277660168379394e-04
1.223258993816162729e+03 5.623413251903490971e-04
1.284194342055111747e+03 1.000000000000000021e-03
1.340091546336917872e+03 1.778279410038922752e-03
1.394222325015327669e+03 3.162277660168379394e-03
1.457904045620652141e+03 5.623413251903490971e-03
1.544835699956505778e+03 1.000000000000000021e-02
1.630584000611925148e+03 1.778279410038922925e-02
1.695197685640009922e+03 3.162277660168379134e-02
1.755158183513845643e+03 5.623413251903491145e-02
1.823706129359184388e+03 1.000000000000000056e-01
1.905540389338147179e+03 1.778279410038922925e-01
2.002932559860809761e+03 3.162277660168379412e-01
2.133729770891467524e+03 5.623413251903490728e-01
2.334217322919687376e+03 1.000000000000000000e+00
2.585997191972961446e+03 1.778279410038922759e+00
2.835682860289980454e+03 3.162277660168379523e+00
3.074667538682849681e+03 5.623413251903491172e+00
3.315401799057623521e+03 1.000000000000000000e+01
3.564553650047754672e+03 1.778279410038922848e+01
3.830021393703333615e+03 3.162277660168379256e+01
4.117841292303055525e+03 5.623413251903490817e+01
4.434847982882320139e+03 1.000000000000000000e+02
4.784168316806530129e+03 1.778279410038922776e+02
5.184495332579477690e+03 3.162277660168379612e+02
