# Temperature (K), Pressure (bars)
1.585093818686236318e+03 9.999999999999999547e-07
1.605022394658894655e+03 1.778279410038922901e-06
1.624950970633749193e+03 3.162277660168379191e-06
1.649130613340222681e+03 5.623413251903491208e-06
1.680249356259630531e+03 1.000000000000000082e-05
1.719487960977107832e+03 1.778279410038922901e-05
1.765606562003503996e+03 3.162277660168379530e-05
1.818582965334223672e+03 5.623413251903490700e-05
1.877232445813531740e+03 1.000000000000000048e-04
1.939944781576054083e+03 1.778279410038922698e-04
2.007374951412230530e+03 3.162277660168379394e-04
2.079549361348486855e+03 5.623413251903490971e-04
2.161359276687516740e+03 1.000000000000000021e-03
2.260475673633085080e+03 1.778279410038922752e-03
2.373001058207767528e+03 3.162277660168379394e-03
2.492256256197972107e+03 5.623413251903490971e-03
2.618093267905017456e+03 1.000000000000000021e-02
2.751651585655843519e+03 1.778279410038922925e-02
2.894658425473109673e+03 3.162277660168379134e-02
3.049609662831207061e+03 5.623413251903491145e-02
3.219936645717419651e+03 1.000000000000000056e-01
3.409671883600909496e+03 1.778279410038922925e-01
3.622841006315931736e+03 3.162277660168379412e-01
3.864618259652648703e+03 5.623413251903490728e-01
4.146176143080381735e+03 1.000000000000000000e+00
4.457636253125267103e+03 1.778279410038922759e+00
4.854281560194723170e+03 3.162277660168379523e+00
5.400936176270633041e+03 5.623413251903491172e+00
6.227331531591827115e+03 1.000000000000000000e+01
7.505200878264893618e+03 1.778279410038922848e+01
9.211166573328036975e+03 3.162277660168379256e+01
1.122279842987858137e+04 5.623413251903490817e+01
1.365564033196711898e+04 1.000000000000000000e+02
1.662605012594664004e+04 1.778279410038922776e+02
2.016940374569455525e+04 3.162277660168379612e+02
