# Temperature (K), Pressure (bars)
8.203971204988531554e+02 5.623413251903490971e-04
8.698242506825557712e+02 1.000000000000000021e-03
9.192513822518660618e+02 1.778279410038922752e-03
9.666581437827614991e+02 3.162277660168379394e-03
1.013363994709661938e+03 5.623413251903490971e-03
1.060346619387373721e+03 1.000000000000000021e-02
1.108961583704647410e+03 1.778279410038922925e-02
1.162258315229582877e+03 3.162277660168379134e-02
1.224725354993833889e+03 5.623413251903491145e-02
1.301862842130768286e+03 1.000000000000000056e-01
1.402256056612028715e+03 1.778279410038922925e-01
1.542714200648514861e+03 3.162277660168379412e-01
1.747789850485334227e+03 5.623413251903490728e-01
2.012045235527576324e+03 1.000000000000000000e+00
2.291776723653858880e+03 1.778279410038922759e+00
2.562956847626141553e+03 3.162277660168379523e+00
2.825976800544486650e+03 5.623413251903491172e+00
3.083374113677104106e+03 1.000000000000000000e+01
3.341760896531231538e+03 1.778279410038922848e+01
3.610429835023938267e+03 3.162277660168379256e+01
3.895717083438412374e+03 5.623413251903490817e+01
4.204667945550162585e+03 1.000000000000000000e+02
4.540924531215986462e+03 1.778279410038922776e+02
4.920759662616115747e+03 3.162277660168379612e+02
