# Temperature (K), Pressure (bars)
1.008348088647191958e+03 5.623413251903490700e-05
1.034814622781851540e+03 1.000000000000000048e-04
1.061281158758574747e+03 1.778279410038922698e-04
1.096200092265526337e+03 3.162277660168379394e-04
1.158599492327807184e+03 5.623413251903490971e-04
1.247088357818527584e+03 1.000000000000000021e-03
1.359073748439874407e+03 1.778279410038922752e-03
1.507821224869447406e+03 3.162277660168379394e-03
1.631118540115355017e+03 5.623413251903490971e-03
1.690521236602851786e+03 1.000000000000000021e-02
1.727727371429198229e+03 1.778279410038922925e-02
1.766511820165193740e+03 3.162277660168379134e-02
1.808958554814308854e+03 5.623413251903491145e-02
1.856427376493764996e+03 1.000000000000000056e-01
1.910645719402214354e+03 1.778279410038922925e-01
1.982343500436762042e+03 3.162277660168379412e-01
2.069472572761834726e+03 5.623413251903490728e-01
2.203080183180104541e+03 1.000000000000000000e+00
2.432541277281097337e+03 1.778279410038922759e+00
2.699623794475789055e+03 3.162277660168379523e+00
2.950793994960707550e+03 5.623413251903491172e+00
3.199628473109016795e+03 1.000000000000000000e+01
3.453223642275967904e+03 1.778279410038922848e+01
3.719661096361188811e+03 3.162277660168379256e+01
4.005551582713541393e+03 5.623413251903490817e+01
4.317828843905415852e+03 1.000000000000000000e+02
4.659550677790443842e+03 1.778279410038922776e+02
5.048551435001109894e+03 3.162277660168379612e+02
