# Temperature (K), Pressure (bars)
1.577650206500414924e+03 9.999999999999999547e-07
1.631330084257360795e+03 1.778279410038922901e-06
1.685009962014306893e+03 3.162277660168379191e-06
1.738453644974788403e+03 5.623413251903491208e-06
1.791284991251600786e+03 1.000000000000000082e-05
1.842071691270898782e+03 1.778279410038922901e-05
1.890473979171879364e+03 3.162277660168379530e-05
1.938367415695650379e+03 5.623413251903490700e-05
1.987891371444525703e+03 1.000000000000000048e-04
2.040560572326271313e+03 1.778279410038922698e-04
2.097578147582630208e+03 3.162277660168379394e-04
2.160073104018718368e+03 5.623413251903490971e-04
2.231782701004676710e+03 1.000000000000000021e-03
2.319313302179895800e+03 1.778279410038922752e-03
2.422928919159429370e+03 3.162277660168379394e-03
2.537212457675349469e+03 5.623413251903490971e-03
2.660031462566008031e+03 1.000000000000000021e-02
2.792526516100974277e+03 1.778279410038922925e-02
2.937195467259614816e+03 3.162277660168379134e-02
3.097670058861004691e+03 5.623413251903491145e-02
3.278085576586945535e+03 1.000000000000000056e-01
3.485157381214570705e+03 1.778279410038922925e-01
3.693360018615772788e+03 3.162277660168379412e-01
3.932888732203837662e+03 5.623413251903490728e-01
4.215489298994326418e+03 1.000000000000000000e+00
4.552686390303289045e+03 1.778279410038922759e+00
4.998197696853028901e+03 3.162277660168379523e+00
5.639526022436782114e+03 5.623413251903491172e+00
6.622632825457818399e+03 1.000000000000000000e+01
8.088692080609530421e+03 1.778279410038922848e+01
9.891187645044037708e+03 3.162277660168379256e+01
1.000000000000000000e+04 5.623413251903490817e+01
1.000000000000000000e+04 1.000000000000000000e+02
1.000000000000000000e+04 1.778279410038922776e+02
1.000000000000000000e+04 3.162277660168379612e+02
