# Temperature (K), Pressure (bars)
9.870738662816404485e+02 9.999999999999999547e-07
1.039999842637344500e+03 1.778279410038922901e-06
1.092925820916313114e+03 3.162277660168379191e-06
1.144408129257045175e+03 5.623413251903491208e-06
1.194292868081825418e+03 1.000000000000000082e-05
1.243500501357912526e+03 1.778279410038922901e-05
1.294625575322917712e+03 3.162277660168379530e-05
1.353095629145334442e+03 5.623413251903490700e-05
1.427049941027752993e+03 1.000000000000000048e-04
1.513530546472364222e+03 1.778279410038922698e-04
1.607409192830755046e+03 3.162277660168379394e-04
1.715332183027621568e+03 5.623413251903490971e-04
1.827360225717980256e+03 1.000000000000000021e-03
1.932975973612018151e+03 1.778279410038922752e-03
2.052059523005064875e+03 3.162277660168379394e-03
2.196240619688734114e+03 5.623413251903490971e-03
2.350219437024436957e+03 1.000000000000000021e-02
2.504559119973124325e+03 1.778279410038922925e-02
2.661611780078526863e+03 3.162277660168379134e-02
2.823551747831033026e+03 5.623413251903491145e-02
2.992362955065175811e+03 1.000000000000000056e-01
3.169442431852044137e+03 1.778279410038922925e-01
3.355683994828168579e+03 3.162277660168379412e-01
3.553043395709456490e+03 5.623413251903490728e-01
3.765771656362913291e+03 1.000000000000000000e+00
4.000108557001543886e+03 1.778279410038922759e+00
4.264156587163841323e+03 3.162277660168379523e+00
4.568870089451827880e+03 5.623413251903491172e+00
4.928226036420803212e+03 1.000000000000000000e+01
5.369760748662934930e+03 1.778279410038922848e+01
5.933516073682869319e+03 3.162277660168379256e+01
6.685747394313734731e+03 5.623413251903490817e+01
7.743373822994926741e+03 1.000000000000000000e+02
9.268182216504334065e+03 1.778279410038922776e+02
1.120986919616547129e+04 3.162277660168379612e+02
