# Temperature (K), Pressure (bars)
9.124168474711430008e+02 1.000000000000000048e-04
9.647548814936023973e+02 1.778279410038922698e-04
1.017092917459740420e+03 3.162277660168379394e-04
1.068056373179717411e+03 5.623413251903490971e-04
1.119074844854250159e+03 1.000000000000000021e-03
1.171344491532333677e+03 1.778279410038922752e-03
1.225673808015609893e+03 3.162277660168379394e-03
1.282909202453663283e+03 5.623413251903490971e-03
1.344868477290028750e+03 1.000000000000000021e-02
1.417489956753011256e+03 1.778279410038922925e-02
1.510342890841008739e+03 3.162277660168379134e-02
1.633306390979090111e+03 5.623413251903491145e-02
1.789130064918352218e+03 1.000000000000000056e-01
1.990915526590751824e+03 1.778279410038922925e-01
2.237501373153186250e+03 3.162277660168379412e-01
2.482126418850084519e+03 5.623413251903490728e-01
2.704773795625623734e+03 1.000000000000000000e+00
2.919799283247681615e+03 1.778279410038922759e+00
3.134116175119331274e+03 3.162277660168379523e+00
3.353376282926000385e+03 5.623413251903491172e+00
3.583113647909504834e+03 1.000000000000000000e+01
3.828980421640953409e+03 1.778279410038922848e+01
4.098848006544234522e+03 3.162277660168379256e+01
4.397695553294262936e+03 5.623413251903490817e+01
4.732803404879386107e+03 1.000000000000000000e+02
5.107558254740426491e+03 1.778279410038922776e+02
5.544509022145690324e+03 3.162277660168379612e+02
