# Temperature (K), Pressure (bars)
8.355276218859858091e+02 1.000000000000000021e-03
8.753545906470797036e+02 1.778279410038922752e-03
9.151815604501751977e+02 3.162277660168379394e-03
9.536745472582118737e+02 5.623413251903490971e-03
9.922828406201219877e+02 1.000000000000000021e-02
1.031883210568830918e+03 1.778279410038922925e-02
1.072714543684866157e+03 3.162277660168379134e-02
1.116680402312679689e+03 5.623413251903491145e-02
1.166899282575643156e+03 1.000000000000000056e-01
1.228227278924541679e+03 1.778279410038922925e-01
1.304945995500620029e+03 3.162277660168379412e-01
1.409807112574877920e+03 5.623413251903490728e-01
1.571019440476184855e+03 1.000000000000000000e+00
1.799399621178204598e+03 1.778279410038922759e+00
2.075026665203636639e+03 3.162277660168379523e+00
2.370185500442511511e+03 5.623413251903491172e+00
2.664546764736673140e+03 1.000000000000000000e+01
2.953100122222745540e+03 1.778279410038922848e+01
3.242624665519982955e+03 3.162277660168379256e+01
3.537823261476350126e+03 5.623413251903490817e+01
3.846716514055657171e+03 1.000000000000000000e+02
4.174497126699893670e+03 1.778279410038922776e+02
4.535407531066786760e+03 3.162277660168379612e+02
