# Temperature (K), Pressure (bars)
1.850682470550831113e+03 9.999999999999999547e-07
1.919814351250328400e+03 1.778279410038922901e-06
1.988946231949825687e+03 3.162277660168379191e-06
2.050947348696050540e+03 5.623413251903491208e-06
2.101883522737822659e+03 1.000000000000000082e-05
2.143224245963703652e+03 1.778279410038922901e-05
2.178588605321746400e+03 3.162277660168379530e-05
2.210989070825995441e+03 5.623413251903490700e-05
2.243078426284931993e+03 1.000000000000000048e-04
2.277310190478970981e+03 1.778279410038922698e-04
2.315943058400862355e+03 3.162277660168379394e-04
2.360767514246033898e+03 5.623413251903490971e-04
2.413528747153242875e+03 1.000000000000000021e-03
2.475822641042891064e+03 1.778279410038922752e-03
2.549179985579975892e+03 3.162277660168379394e-03
2.632461996689626176e+03 5.623413251903490971e-03
2.725199715153791658e+03 1.000000000000000021e-02
2.833676780466539640e+03 1.778279410038922925e-02
2.962884186862347633e+03 3.162277660168379134e-02
3.114891780360771008e+03 5.623413251903491145e-02
3.294212387743270938e+03 1.000000000000000056e-01
3.497090195710313310e+03 1.778279410038922925e-01
3.710131699789058075e+03 3.162277660168379412e-01
3.956197714876988812e+03 5.623413251903490728e-01
4.243659297999020055e+03 1.000000000000000000e+00
4.592768780520784276e+03 1.778279410038922759e+00
5.059048237833268104e+03 3.162277660168379523e+00
5.730883375485327633e+03 5.623413251903491172e+00
6.733907990347408486e+03 1.000000000000000000e+01
8.217836483993271031e+03 1.778279410038922848e+01
1.000000000000000000e+04 3.162277660168379256e+01
1.000000000000000000e+04 5.623413251903490817e+01
1.000000000000000000e+04 1.000000000000000000e+02
1.000000000000000000e+04 1.778279410038922776e+02
1.000000000000000000e+04 3.162277660168379612e+02
