# Temperature (K), Pressure (bars)
4.531232510004412325e+04 9.999999999999999547e-07
5.484048533472435520e+04 1.778279410038922901e-06
6.635581534483333235e+04 3.162277660168379191e-06
7.946924617606606625e+04 5.623413251903491208e-06
9.338998648024511931e+04 1.000000000000000082e-05
1.070394970537338959e+05 1.778279410038922901e-05
1.195165726394886005e+05 3.162277660168379530e-05
1.303948525004004769e+05 5.623413251903490700e-05
1.397930164078614907e+05 1.000000000000000048e-04
1.481119613967204350e+05 1.778279410038922698e-04
1.557733802964331699e+05 3.162277660168379394e-04
1.631511948951066006e+05 5.623413251903490971e-04
1.705126218345245288e+05 1.000000000000000021e-03
1.780888558366675861e+05 1.778279410038922752e-03
1.860834642695736256e+05 3.162277660168379394e-03
1.946957936699231213e+05 5.623413251903490971e-03
2.041636879733143141e+05 1.000000000000000021e-02
2.147800536429923959e+05 1.778279410038922925e-02
2.269120002410559391e+05 3.162277660168379134e-02
2.410655013986687700e+05 5.623413251903491145e-02
2.578800247576260881e+05 1.000000000000000056e-01
2.781904902958537568e+05 1.778279410038922925e-01
3.031199612759053707e+05 3.162277660168379412e-01
3.340986230685971095e+05 5.623413251903490728e-01
3.729461164716125350e+05 1.000000000000000000e+00
4.219948483458465198e+05 1.778279410038922759e+00
4.841911467583110789e+05 3.162277660168379523e+00
5.632236894843028858e+05 5.623413251903491172e+00
6.635644908116788138e+05 1.000000000000000000e+01
7.907367789972429164e+05 1.778279410038922848e+01
9.512521323219959158e+05 3.162277660168379256e+01
1.152486943168834783e+06 5.623413251903490817e+01
1.402102270114921965e+06 1.000000000000000000e+02
1.706654530630388530e+06 1.778279410038922776e+02
2.069944018053284381e+06 3.162277660168379612e+02
