# Temperature (K), Pressure (bars)
7.844587553847070467e+02 9.999999999999999547e-07
8.120773326678645390e+02 1.778279410038922901e-06
8.396959099746384254e+02 3.162277660168379191e-06
8.692985124718502448e+02 5.623413251903491208e-06
9.022248785473414046e+02 1.000000000000000082e-05
9.376096252287393327e+02 1.778279410038922901e-05
9.756034251921576015e+02 3.162277660168379530e-05
1.017358946451048155e+03 5.623413251903490700e-05
1.062573442792003789e+03 1.000000000000000048e-04
1.110892978303574409e+03 1.778279410038922698e-04
1.162661891227989827e+03 3.162277660168379394e-04
1.218545296778403781e+03 5.623413251903490971e-04
1.280520926020101342e+03 1.000000000000000021e-03
1.350333610903294129e+03 1.778279410038922752e-03
1.434011359047111227e+03 3.162277660168379394e-03
1.534664370710075900e+03 5.623413251903490971e-03
1.686508518973463651e+03 1.000000000000000021e-02
1.915761330987982774e+03 1.778279410038922925e-02
2.158815157081145117e+03 3.162277660168379134e-02
2.370984564618840523e+03 5.623413251903491145e-02
2.564542915814980461e+03 1.000000000000000056e-01
2.747345893231542505e+03 1.778279410038922925e-01
2.925644839283862439e+03 3.162277660168379412e-01
3.104149990100476316e+03 5.623413251903490728e-01
3.287316751918341652e+03 1.000000000000000000e+00
3.479780216708386888e+03 1.778279410038922759e+00
3.686106747461159102e+03 3.162277660168379523e+00
3.910943010687363767e+03 5.623413251903491172e+00
4.159425687295182797e+03 1.000000000000000000e+01
4.437727552482462670e+03 1.778279410038922848e+01
4.754095288994740258e+03 3.162277660168379256e+01
5.123406584358590408e+03 5.623413251903490817e+01
5.556422441356030504e+03 1.000000000000000000e+02
6.073428702696942310e+03 1.778279410038922776e+02
6.703647120212726804e+03 3.162277660168379612e+02
