# Temperature (K), Pressure (bars)
2.409298422135967485e+03 9.999999999999999547e-07
2.435812739180255448e+03 1.778279410038922901e-06
2.462327056224864464e+03 3.162277660168379191e-06
2.499682724994784621e+03 5.623413251903491208e-06
2.536984505779214032e+03 1.000000000000000082e-05
2.575936248810326106e+03 1.778279410038922901e-05
2.618183706794173759e+03 3.162277660168379530e-05
2.660029359158891566e+03 5.623413251903490700e-05
2.700496288211665160e+03 1.000000000000000048e-04
2.737387897580199933e+03 1.778279410038922698e-04
2.770618272626549697e+03 3.162277660168379394e-04
2.802965957282086492e+03 5.623413251903490971e-04
2.839500809486697563e+03 1.000000000000000021e-03
2.885996436392867963e+03 1.778279410038922752e-03
2.946581554677032273e+03 3.162277660168379394e-03
3.023310572235740437e+03 5.623413251903490971e-03
3.114966168180887053e+03 1.000000000000000021e-02
3.222163195663282750e+03 1.778279410038922925e-02
3.342422867039029370e+03 3.162277660168379134e-02
3.487307348835275207e+03 5.623413251903491145e-02
3.714303172689451458e+03 1.000000000000000056e-01
4.009931174171399107e+03 1.778279410038922925e-01
4.449478082767241176e+03 3.162277660168379412e-01
5.213542136912555179e+03 5.623413251903490728e-01
6.424074001448896524e+03 1.000000000000000000e+00
7.949352690289472775e+03 1.778279410038922759e+00
9.526090858599736748e+03 3.162277660168379523e+00
1.116875200715743085e+04 5.623413251903491172e+00
1.316165810460546345e+04 1.000000000000000000e+01
1.568748536404618426e+04 1.778279410038922848e+01
1.887679227437549707e+04 3.162277660168379256e+01
2.287647304617102418e+04 5.623413251903490817e+01
2.783738151101089898e+04 1.000000000000000000e+02
3.389210614826354868e+04 1.778279410038922776e+02
4.111709236337080802e+04 3.162277660168379612e+02
