# Temperature (K), Pressure (bars)
9.395828519876504288e+02 1.000000000000000082e-05
9.864815830978734539e+02 1.778279410038922901e-05
1.033374662650199753e+03 3.162277660168379530e-05
1.076096074143392343e+03 5.623413251903490700e-05
1.118938069794441390e+03 1.000000000000000048e-04
1.164852802651065758e+03 1.778279410038922698e-04
1.216072538869082337e+03 3.162277660168379394e-04
1.274783465124287886e+03 5.623413251903490971e-04
1.347081366107168833e+03 1.000000000000000021e-03
1.439689524287128734e+03 1.778279410038922752e-03
1.549046886382094044e+03 3.162277660168379394e-03
1.669099928263227184e+03 5.623413251903490971e-03
1.789521068930659339e+03 1.000000000000000021e-02
1.919750926715654259e+03 1.778279410038922925e-02
2.088076292410713449e+03 3.162277660168379134e-02
2.281371654128175578e+03 5.623413251903491145e-02
2.470329957961535911e+03 1.000000000000000056e-01
2.652091601804380844e+03 1.778279410038922925e-01
2.832167783383694768e+03 3.162277660168379412e-01
3.014111018113166210e+03 5.623413251903490728e-01
3.200330150831213814e+03 1.000000000000000000e+00
3.393907764296040114e+03 1.778279410038922759e+00
3.599101599728514884e+03 3.162277660168379523e+00
3.820633158071620528e+03 5.623413251903491172e+00
4.063528409636439847e+03 1.000000000000000000e+01
4.333560963289783103e+03 1.778279410038922848e+01
4.637833168460630986e+03 3.162277660168379256e+01
4.985945715095390369e+03 5.623413251903490817e+01
5.395216666065082791e+03 1.000000000000000000e+02
5.878725472535198605e+03 1.778279410038922776e+02
6.461134020309453263e+03 3.162277660168379612e+02
