# Temperature (K), Pressure (bars)
8.390822400799499974e+02 3.162277660168379191e-06
8.773515838529898474e+02 5.623413251903491208e-06
9.156209328433121755e+02 1.000000000000000082e-05
9.620989139843167095e+02 1.778279410038922901e-05
1.019653070887480567e+03 3.162277660168379530e-05
1.088079289264951285e+03 5.623413251903490700e-05
1.173817542137307100e+03 1.000000000000000048e-04
1.285729990285213717e+03 1.778279410038922698e-04
1.448972381052247101e+03 3.162277660168379394e-04
1.643727818629418380e+03 5.623413251903490971e-04
1.780632370290347581e+03 1.000000000000000021e-03
1.849685697317537233e+03 1.778279410038922752e-03
1.901550421771390802e+03 3.162277660168379394e-03
1.952177627300062341e+03 5.623413251903490971e-03
2.006068504319011936e+03 1.000000000000000021e-02
2.067223389314596261e+03 1.778279410038922925e-02
2.141167578598505770e+03 3.162277660168379134e-02
2.231769146732814079e+03 5.623413251903491145e-02
2.358531288045170186e+03 1.000000000000000056e-01
2.531808683663303782e+03 1.778279410038922925e-01
2.716501730366349420e+03 3.162277660168379412e-01
2.896225962583032469e+03 5.623413251903490728e-01
3.082285348526359940e+03 1.000000000000000000e+00
3.277472880406248805e+03 1.778279410038922759e+00
3.483617386824715140e+03 3.162277660168379523e+00
3.703610085664901817e+03 5.623413251903491172e+00
3.941839871985583613e+03 1.000000000000000000e+01
4.203762268634181964e+03 1.778279410038922848e+01
4.495865029468441207e+03 3.162277660168379256e+01
4.826544577775553080e+03 5.623413251903490817e+01
5.210978878725752111e+03 1.000000000000000000e+02
5.658935993609126854e+03 1.778279410038922776e+02
6.189126374399644192e+03 3.162277660168379612e+02
