# Temperature (K), Pressure (bars)
1.187085155252951608e+03 1.000000000000000082e-05
1.223088687970682486e+03 1.778279410038922901e-05
1.259482511529794238e+03 3.162277660168379530e-05
1.299172725018286656e+03 5.623413251903490700e-05
1.341416247144746649e+03 1.000000000000000048e-04
1.386205162702050075e+03 1.778279410038922698e-04
1.436135809511533807e+03 3.162277660168379394e-04
1.492730604312992000e+03 5.623413251903490971e-04
1.555629696706971799e+03 1.000000000000000021e-03
1.627582321975822197e+03 1.778279410038922752e-03
1.706179906305560962e+03 3.162277660168379394e-03
1.798427230051054948e+03 5.623413251903490971e-03
1.915944984145615308e+03 1.000000000000000021e-02
2.049825271438854543e+03 1.778279410038922925e-02
2.201915235041567030e+03 3.162277660168379134e-02
2.370768440768280925e+03 5.623413251903491145e-02
2.540251876705853647e+03 1.000000000000000056e-01
2.708086609972716360e+03 1.778279410038922925e-01
2.878721519947800971e+03 3.162277660168379412e-01
3.055419637248071012e+03 5.623413251903490728e-01
3.240655985213699751e+03 1.000000000000000000e+00
3.436470215813323193e+03 1.778279410038922759e+00
3.645380698658855181e+03 3.162277660168379523e+00
3.871208153310463331e+03 5.623413251903491172e+00
4.119016515386325409e+03 1.000000000000000000e+01
4.394915108366184541e+03 1.778279410038922848e+01
4.706513903865410612e+03 3.162277660168379256e+01
5.064162518478872698e+03 5.623413251903490817e+01
5.485958520123515882e+03 1.000000000000000000e+02
5.987056976512960318e+03 1.778279410038922776e+02
6.594058773472378562e+03 3.162277660168379612e+02
