# Temperature (K), Pressure (bars)
1.217656275739996317e+03 3.162277660168379394e-04
1.255227273577723963e+03 5.623413251903490971e-04
1.292798274860645733e+03 1.000000000000000021e-03
1.335554402052831392e+03 1.778279410038922752e-03
1.384021300358924009e+03 3.162277660168379394e-03
1.437101316068886945e+03 5.623413251903490971e-03
1.496173149162188110e+03 1.000000000000000021e-02
1.568728681741322589e+03 1.778279410038922925e-02
1.648768535284201562e+03 3.162277660168379134e-02
1.722989880278076953e+03 5.623413251903491145e-02
1.796985629324084812e+03 1.000000000000000056e-01
1.879859247071505706e+03 1.778279410038922925e-01
1.982980872497643077e+03 3.162277660168379412e-01
2.107909336813841037e+03 5.623413251903490728e-01
2.276026770029199270e+03 1.000000000000000000e+00
2.514531787738537332e+03 1.778279410038922759e+00
2.773245732170540577e+03 3.162277660168379523e+00
3.016698700574459053e+03 5.623413251903491172e+00
3.260416575190860385e+03 1.000000000000000000e+01
3.511460987639403811e+03 1.778279410038922848e+01
3.777263478074838531e+03 3.162277660168379256e+01
4.064015017786873614e+03 5.623413251903490817e+01
4.378565369057540011e+03 1.000000000000000000e+02
4.724034799888828275e+03 1.778279410038922776e+02
5.118781702129974292e+03 3.162277660168379612e+02
