# Temperature (K), Pressure (bars)
9.216946248416088565e+02 5.623413251903490700e-05
9.841906395926225741e+02 1.000000000000000048e-04
1.046686656299723154e+03 1.778279410038922698e-04
1.103084789596893188e+03 3.162277660168379394e-04
1.152953334994904026e+03 5.623413251903490971e-04
1.193708008729987569e+03 1.000000000000000021e-03
1.228707336632188344e+03 1.778279410038922752e-03
1.262547416177102605e+03 3.162277660168379394e-03
1.313448426827128060e+03 5.623413251903490971e-03
1.403766167194355148e+03 1.000000000000000021e-02
1.531150552726272963e+03 1.778279410038922925e-02
1.680365737208323253e+03 3.162277660168379134e-02
1.814902842807224033e+03 5.623413251903491145e-02
1.919472685713198416e+03 1.000000000000000056e-01
2.022987269872653997e+03 1.778279410038922925e-01
2.150559347834897835e+03 3.162277660168379412e-01
2.332283031887878224e+03 5.623413251903490728e-01
2.567081081517446364e+03 1.000000000000000000e+00
2.804213228345228799e+03 1.778279410038922759e+00
3.027919754670406292e+03 3.162277660168379523e+00
3.253314308497825550e+03 5.623413251903491172e+00
3.486327815197832479e+03 1.000000000000000000e+01
3.732629001863002941e+03 1.778279410038922848e+01
4.000013530764734696e+03 3.162277660168379256e+01
4.293917494173440900e+03 5.623413251903490817e+01
4.621364988954119326e+03 1.000000000000000000e+02
4.985858532241079956e+03 1.778279410038922776e+02
5.407596771831481419e+03 3.162277660168379612e+02
