# Temperature (K), Pressure (bars)
1.856488042648744340e+03 9.999999999999999547e-07
1.870432818032478053e+03 1.778279410038922901e-06
1.884377593417206754e+03 3.162277660168379191e-06
1.907194432234563237e+03 5.623413251903491208e-06
1.936455199795858789e+03 1.000000000000000082e-05
1.968823235402745240e+03 1.778279410038922901e-05
2.004604902046923598e+03 3.162277660168379530e-05
2.042089327464211465e+03 5.623413251903490700e-05
2.078622085748314930e+03 1.000000000000000048e-04
2.114458411370182603e+03 1.778279410038922698e-04
2.151554783783310995e+03 3.162277660168379394e-04
2.191494019990134802e+03 5.623413251903490971e-04
2.235572433440746863e+03 1.000000000000000021e-03
2.285642671817275186e+03 1.778279410038922752e-03
2.343183308495837082e+03 3.162277660168379394e-03
2.411249340628673508e+03 5.623413251903490971e-03
2.498944027708895192e+03 1.000000000000000021e-02
2.609206466657155033e+03 1.778279410038922925e-02
2.733634083356605515e+03 3.162277660168379134e-02
2.868536325890099761e+03 5.623413251903491145e-02
3.016431874292512930e+03 1.000000000000000056e-01
3.179791694478299178e+03 1.778279410038922925e-01
3.360633533169426300e+03 3.162277660168379412e-01
3.559728414885936218e+03 5.623413251903490728e-01
3.778139052724669000e+03 1.000000000000000000e+00
4.019771222622423011e+03 1.778279410038922759e+00
4.292361626278809126e+03 3.162277660168379523e+00
4.607814757938892399e+03 5.623413251903491172e+00
4.978913922535641177e+03 1.000000000000000000e+01
5.440542776161484653e+03 1.778279410038922848e+01
6.044480607791928378e+03 3.162277660168379256e+01
6.887981525010499354e+03 5.623413251903490817e+01
8.120417086949077202e+03 1.000000000000000000e+02
9.830131621307207752e+03 1.778279410038922776e+02
1.192127058708224104e+04 3.162277660168379612e+02
