# Temperature (K), Pressure (bars)
2.052138539043975015e+03 9.999999999999999547e-07
2.074528233231619652e+03 1.778279410038922901e-06
2.096917927419263378e+03 3.162277660168379191e-06
2.122524595925606718e+03 5.623413251903491208e-06
2.151596300612460709e+03 1.000000000000000082e-05
2.181570535567501338e+03 1.778279410038922901e-05
2.209853303775882523e+03 3.162277660168379530e-05
2.236235903802742541e+03 5.623413251903490700e-05
2.262588157593141204e+03 1.000000000000000048e-04
2.291721304750823492e+03 1.778279410038922698e-04
2.326251414235722223e+03 3.162277660168379394e-04
2.367718179506411616e+03 5.623413251903490971e-04
2.417514477844101748e+03 1.000000000000000021e-03
2.475827836031006427e+03 1.778279410038922752e-03
2.543177205768142358e+03 3.162277660168379394e-03
2.616265610139058936e+03 5.623413251903490971e-03
2.698907456473237744e+03 1.000000000000000021e-02
2.805474101265195713e+03 1.778279410038922925e-02
2.934061947510403570e+03 3.162277660168379134e-02
3.079467475660332184e+03 5.623413251903491145e-02
3.246470218339930398e+03 1.000000000000000056e-01
3.442065196344229662e+03 1.778279410038922925e-01
3.642220144580073338e+03 3.162277660168379412e-01
3.871211266965827690e+03 5.623413251903490728e-01
4.137503735389458598e+03 1.000000000000000000e+00
4.446195465708847223e+03 1.778279410038922759e+00
4.837562128705876603e+03 3.162277660168379523e+00
5.372550994200365494e+03 5.623413251903491172e+00
6.180020356513735351e+03 1.000000000000000000e+01
7.435648192606977318e+03 1.778279410038922848e+01
9.125153840577626397e+03 3.162277660168379256e+01
1.000000000000000000e+04 5.623413251903490817e+01
1.000000000000000000e+04 1.000000000000000000e+02
1.000000000000000000e+04 1.778279410038922776e+02
1.000000000000000000e+04 3.162277660168379612e+02
