# Temperature (K), Pressure (bars)
1.360658779537682904e+03 3.162277660168379394e-04
1.400147672352694826e+03 5.623413251903490971e-04
1.439636569741935318e+03 1.000000000000000021e-03
1.494346691237054984e+03 1.778279410038922752e-03
1.563158749935207197e+03 3.162277660168379394e-03
1.627506813027297994e+03 5.623413251903490971e-03
1.682753069374139614e+03 1.000000000000000021e-02
1.738114741447286406e+03 1.778279410038922925e-02
1.796916247104053582e+03 3.162277660168379134e-02
1.859640806855334858e+03 5.623413251903491145e-02
1.929112728463265285e+03 1.000000000000000056e-01
2.011652336301776131e+03 1.778279410038922925e-01
2.113470700350376774e+03 3.162277660168379412e-01
2.242114891812113456e+03 5.623413251903490728e-01
2.425783690240367832e+03 1.000000000000000000e+00
2.664081984115134674e+03 1.778279410038922759e+00
2.907109971965589011e+03 3.162277660168379523e+00
3.139596489214142821e+03 5.623413251903491172e+00
3.376843075344879253e+03 1.000000000000000000e+01
3.624955266164976820e+03 1.778279410038922848e+01
3.890865631696471610e+03 3.162277660168379256e+01
4.180587021588679818e+03 5.623413251903490817e+01
4.501009185139680085e+03 1.000000000000000000e+02
4.855353331200255525e+03 1.778279410038922776e+02
5.262942044716686723e+03 3.162277660168379612e+02
