# Temperature (K), Pressure (bars)
7.778549619280435081e+02 1.000000000000000048e-04
8.180656879581443945e+02 1.778279410038922698e-04
8.582764152503634705e+02 3.162277660168379394e-04
8.989008304047350748e+02 5.623413251903490971e-04
9.399904389534044640e+02 1.000000000000000021e-03
9.820890718996665782e+02 1.778279410038922752e-03
1.025421206123704678e+03 3.162277660168379394e-03
1.071859505916067747e+03 5.623413251903490971e-03
1.123704127158946449e+03 1.000000000000000021e-02
1.189173925017564443e+03 1.778279410038922925e-02
1.268029876541399744e+03 3.162277660168379134e-02
1.395868636883055160e+03 5.623413251903491145e-02
1.613173799692196098e+03 1.000000000000000056e-01
1.870652050164764887e+03 1.778279410038922925e-01
2.130603545426710298e+03 3.162277660168379412e-01
2.386982680963790244e+03 5.623413251903490728e-01
2.625368035748536840e+03 1.000000000000000000e+00
2.849463058987990280e+03 1.778279410038922759e+00
3.067651346830932198e+03 3.162277660168379523e+00
3.288094064308945235e+03 5.623413251903491172e+00
3.517523643732042274e+03 1.000000000000000000e+01
3.761890748221239392e+03 1.778279410038922848e+01
4.029434781833347643e+03 3.162277660168379256e+01
4.324295955499352203e+03 5.623413251903490817e+01
4.653417185062503449e+03 1.000000000000000000e+02
5.020267135594984211e+03 1.778279410038922776e+02
5.445379227053636896e+03 3.162277660168379612e+02
