# Temperature (K), Pressure (bars)
9.970849008826879754e+02 3.162277660168379394e-04
1.042615044364987398e+03 5.623413251903490971e-04
1.088145189988619450e+03 1.000000000000000021e-03
1.133804887623363356e+03 1.778279410038922752e-03
1.180218854635413663e+03 3.162277660168379394e-03
1.229119284219841120e+03 5.623413251903490971e-03
1.280372236505095316e+03 1.000000000000000021e-02
1.334246785172480486e+03 1.778279410038922925e-02
1.393455213210472721e+03 3.162277660168379134e-02
1.464453157239478060e+03 5.623413251903491145e-02
1.554677061375129597e+03 1.000000000000000056e-01
1.671623955341439796e+03 1.778279410038922925e-01
1.821949732668679189e+03 3.162277660168379412e-01
1.998140038374306414e+03 5.623413251903490728e-01
2.213191914856396124e+03 1.000000000000000000e+00
2.475496547824789104e+03 1.778279410038922759e+00
2.739992868172983890e+03 3.162277660168379523e+00
2.987110959657291914e+03 5.623413251903491172e+00
3.232665676103457372e+03 1.000000000000000000e+01
3.484235359031244116e+03 1.778279410038922848e+01
3.750120413534066302e+03 3.162277660168379256e+01
4.036358936075056135e+03 5.623413251903490817e+01
4.349770873398168987e+03 1.000000000000000000e+02
4.693555955754580282e+03 1.778279410038922776e+02
5.085590869783317430e+03 3.162277660168379612e+02
