# Temperature (K), Pressure (bars)
8.221414829030669580e+02 1.000000000000000048e-04
8.748173010663357445e+02 1.778279410038922698e-04
9.274931204659063724e+02 3.162277660168379394e-04
9.780607801730229767e+02 5.623413251903490971e-04
1.028031353209780036e+03 1.000000000000000021e-03
1.078813009484193799e+03 1.778279410038922752e-03
1.131966446458211749e+03 3.162277660168379394e-03
1.189773924580054654e+03 5.623413251903490971e-03
1.255276701573604896e+03 1.000000000000000021e-02
1.333222314832968323e+03 1.778279410038922925e-02
1.432560672368893847e+03 3.162277660168379134e-02
1.575316818990136198e+03 5.623413251903491145e-02
1.784377280181999595e+03 1.000000000000000056e-01
2.039781951609041244e+03 1.778279410038922925e-01
2.293050623524061848e+03 3.162277660168379412e-01
2.525931975716084708e+03 5.623413251903490728e-01
2.744719837608411126e+03 1.000000000000000000e+00
2.956143946422114823e+03 1.778279410038922759e+00
3.167118633537777896e+03 3.162277660168379523e+00
3.383968782685801216e+03 5.623413251903491172e+00
3.612431284883864464e+03 1.000000000000000000e+01
3.858050040038273437e+03 1.778279410038922848e+01
4.128881109825435487e+03 3.162277660168379256e+01
4.429437190252052460e+03 5.623413251903490817e+01
4.767076214041118874e+03 1.000000000000000000e+02
5.145232400009888806e+03 1.778279410038922776e+02
5.587064916788754090e+03 3.162277660168379612e+02
