# Temperature (K), Pressure (bars)
9.701381232740666292e+02 3.162277660168379394e-04
1.022883962373764689e+03 5.623413251903490971e-04
1.075629803460703442e+03 1.000000000000000021e-03
1.128823021373812708e+03 1.778279410038922752e-03
1.180896900144012989e+03 3.162277660168379394e-03
1.233484906134989387e+03 5.623413251903490971e-03
1.291643906557980245e+03 1.000000000000000021e-02
1.361024175080441410e+03 1.778279410038922925e-02
1.436062218424933690e+03 3.162277660168379134e-02
1.515187995625786925e+03 5.623413251903491145e-02
1.609181876277805486e+03 1.000000000000000056e-01
1.707540444714549722e+03 1.778279410038922925e-01
1.804278010672492655e+03 3.162277660168379412e-01
1.914360300551775708e+03 5.623413251903490728e-01
2.056835019165851008e+03 1.000000000000000000e+00
2.267624032652609003e+03 1.778279410038922759e+00
2.541204273908534560e+03 3.162277660168379523e+00
2.817303302623392483e+03 5.623413251903491172e+00
3.076998287163700297e+03 1.000000000000000000e+01
3.336762506114121152e+03 1.778279410038922848e+01
3.606044184130019858e+03 3.162277660168379256e+01
3.891645908509708079e+03 5.623413251903490817e+01
4.200687803866093418e+03 1.000000000000000000e+02
4.536567578191851680e+03 1.778279410038922776e+02
4.916236282725999445e+03 3.162277660168379612e+02
