# Temperature (K), Pressure (bars)
1.175062907089797363e+03 1.000000000000000082e-05
1.217454030820564640e+03 1.778279410038922901e-05
1.259944088570718122e+03 3.162277660168379530e-05
1.305358427145201176e+03 5.623413251903490700e-05
1.353309075780997091e+03 1.000000000000000048e-04
1.402786470898711741e+03 1.778279410038922698e-04
1.461065726493318834e+03 3.162277660168379394e-04
1.537893782883262247e+03 5.623413251903490971e-04
1.617174102380097111e+03 1.000000000000000021e-03
1.685285470525905112e+03 1.778279410038922752e-03
1.752295283154676326e+03 3.162277660168379394e-03
1.824796922282338301e+03 5.623413251903490971e-03
1.905788462624940621e+03 1.000000000000000021e-02
1.995729638686031194e+03 1.778279410038922925e-02
2.110621032012054457e+03 3.162277660168379134e-02
2.271039928110878463e+03 5.623413251903491145e-02
2.451146272887194755e+03 1.000000000000000056e-01
2.626287431755199123e+03 1.778279410038922925e-01
2.801570371824893300e+03 3.162277660168379412e-01
2.981208710656544099e+03 5.623413251903490728e-01
3.167725359435827613e+03 1.000000000000000000e+00
3.362754247505672538e+03 1.778279410038922759e+00
3.568955037349938721e+03 3.162277660168379523e+00
3.790515786823964390e+03 5.623413251903491172e+00
4.032458009479989414e+03 1.000000000000000000e+01
4.300521601861923045e+03 1.778279410038922848e+01
4.601691841469222709e+03 3.162277660168379256e+01
4.945317277262493008e+03 5.623413251903490817e+01
5.348110644569285796e+03 1.000000000000000000e+02
5.822700615891348207e+03 1.778279410038922776e+02
6.392996830416448574e+03 3.162277660168379612e+02
