# Temperature (K), Pressure (bars)
2.391622692784833362e+03 9.999999999999999547e-07
2.400015252800223152e+03 1.778279410038922901e-06
2.408407812815612033e+03 3.162277660168379191e-06
2.430644253380431110e+03 5.623413251903491208e-06
2.460344729401012501e+03 1.000000000000000082e-05
2.494097894165164689e+03 1.778279410038922901e-05
2.530765229320229992e+03 3.162277660168379530e-05
2.569418246524384813e+03 5.623413251903490700e-05
2.611645163865096038e+03 1.000000000000000048e-04
2.657406802056264041e+03 1.778279410038922698e-04
2.706178605723832788e+03 3.162277660168379394e-04
2.757526672801418954e+03 5.623413251903490971e-04
2.810420924871721127e+03 1.000000000000000021e-03
2.861832623886202782e+03 1.778279410038922752e-03
2.907822058820991515e+03 3.162277660168379394e-03
2.945588868931324669e+03 5.623413251903490971e-03
2.977263505660283045e+03 1.000000000000000021e-02
3.010128833128507722e+03 1.778279410038922925e-02
3.055904869437543312e+03 3.162277660168379134e-02
3.118492350138932125e+03 5.623413251903491145e-02
3.216109500058266349e+03 1.000000000000000056e-01
3.371181964306083955e+03 1.778279410038922925e-01
3.561373909351765178e+03 3.162277660168379412e-01
3.775073968250066173e+03 5.623413251903490728e-01
4.028739061127664172e+03 1.000000000000000000e+00
4.336024282841628519e+03 1.778279410038922759e+00
4.681245546365180417e+03 3.162277660168379523e+00
5.125610744417029309e+03 5.623413251903491172e+00
5.744106521661856277e+03 1.000000000000000000e+01
6.685233417202392957e+03 1.778279410038922848e+01
8.097467405309110291e+03 3.162277660168379256e+01
9.908464779604357318e+03 5.623413251903490817e+01
1.000000000000000000e+04 1.000000000000000000e+02
1.000000000000000000e+04 1.778279410038922776e+02
1.000000000000000000e+04 3.162277660168379612e+02
