# Temperature (K), Pressure (bars)
1.045130781187751381e+03 9.999999999999999547e-07
1.092115548890776836e+03 1.778279410038922901e-06
1.139100316593897332e+03 3.162277660168379191e-06
1.187224541489688818e+03 5.623413251903491208e-06
1.237963507737712916e+03 1.000000000000000082e-05
1.291185458575489292e+03 1.778279410038922901e-05
1.347026566157226625e+03 3.162277660168379530e-05
1.407532690549304789e+03 5.623413251903490700e-05
1.474277121598744088e+03 1.000000000000000048e-04
1.550216876216107721e+03 1.778279410038922698e-04
1.638796141801454723e+03 3.162277660168379394e-04
1.743162917105413271e+03 5.623413251903490971e-04
1.875366966277399570e+03 1.000000000000000021e-03
2.038834811854732379e+03 1.778279410038922752e-03
2.213745379679934558e+03 3.162277660168379394e-03
2.384825907384116363e+03 5.623413251903490971e-03
2.552178676401941630e+03 1.000000000000000021e-02
2.719415004335632602e+03 1.778279410038922925e-02
2.890142637133711105e+03 3.162277660168379134e-02
3.067789784483208678e+03 5.623413251903491145e-02
3.255374299129589872e+03 1.000000000000000056e-01
3.455900122508470758e+03 1.778279410038922925e-01
3.674399175811051009e+03 3.162277660168379412e-01
3.920084002775654426e+03 5.623413251903490728e-01
4.208188078523389777e+03 1.000000000000000000e+00
4.542481240997635723e+03 1.778279410038922759e+00
4.982507610716825184e+03 3.162277660168379523e+00
5.617300638835445170e+03 5.623413251903491172e+00
6.581672514733736534e+03 1.000000000000000000e+01
8.010978972278290712e+03 1.778279410038922848e+01
9.804144364774054338e+03 3.162277660168379256e+01
1.189647537863446269e+04 5.623413251903490817e+01
1.447309481484187017e+04 1.000000000000000000e+02
1.761692319836520255e+04 1.778279410038922776e+02
2.136417749786944842e+04 3.162277660168379612e+02
