# Temperature (K), Pressure (bars)
1.254722789116650347e+03 9.999999999999999547e-07
1.419152368224283236e+03 1.778279410038922901e-06
1.583581947332878826e+03 3.162277660168379191e-06
1.708115113672121652e+03 5.623413251903491208e-06
1.793293839393774533e+03 1.000000000000000082e-05
1.856750908219123630e+03 1.778279410038922901e-05
1.908085309834718601e+03 3.162277660168379530e-05
1.951392182593399411e+03 5.623413251903490700e-05
1.990878600980623105e+03 1.000000000000000048e-04
2.030163381267793056e+03 1.778279410038922698e-04
2.071253197793870640e+03 3.162277660168379394e-04
2.116250159691901899e+03 5.623413251903490971e-04
2.166965665815901957e+03 1.000000000000000021e-03
2.225890999363248739e+03 1.778279410038922752e-03
2.294508728155003155e+03 3.162277660168379394e-03
2.378298738706485892e+03 5.623413251903490971e-03
2.483709897296854251e+03 1.000000000000000021e-02
2.604355727973370449e+03 1.778279410038922925e-02
2.735077323332638571e+03 3.162277660168379134e-02
2.878690218869014643e+03 5.623413251903491145e-02
3.037322360132671747e+03 1.000000000000000056e-01
3.212136867342667756e+03 1.778279410038922925e-01
3.402688932215289697e+03 3.162277660168379412e-01
3.608824123412237896e+03 5.623413251903490728e-01
3.833344503960824113e+03 1.000000000000000000e+00
4.082706830080678628e+03 1.778279410038922759e+00
4.366824987906935348e+03 3.162277660168379523e+00
4.693262948031057022e+03 5.623413251903491172e+00
5.091246751906507598e+03 1.000000000000000000e+01
5.595839301320335835e+03 1.778279410038922848e+01
6.267136969566644439e+03 3.162277660168379256e+01
7.208548467610792613e+03 5.623413251903490817e+01
8.586678282720971765e+03 1.000000000000000000e+02
1.042742798026449418e+04 1.778279410038922776e+02
1.264359136935283095e+04 3.162277660168379612e+02
