# Temperature (K), Pressure (bars)
8.962355108615830659e+02 3.162277660168379530e-05
9.533296137579047809e+02 5.623413251903490700e-05
1.010423717211612143e+03 1.000000000000000048e-04
1.066029665381360928e+03 1.778279410038922698e-04
1.121218368563691911e+03 3.162277660168379394e-04
1.171642938621226449e+03 5.623413251903490971e-04
1.215516750579284462e+03 1.000000000000000021e-03
1.254409545824318229e+03 1.778279410038922752e-03
1.300936865501283819e+03 3.162277660168379394e-03
1.388808810361625774e+03 5.623413251903490971e-03
1.536655120332802198e+03 1.000000000000000021e-02
1.712545679758820597e+03 1.778279410038922925e-02
1.872482117484920991e+03 3.162277660168379134e-02
2.003694243045725443e+03 5.623413251903491145e-02
2.149823094940745250e+03 1.000000000000000056e-01
2.350308472218452152e+03 1.778279410038922925e-01
2.562414607179379800e+03 3.162277660168379412e-01
2.758372968201978438e+03 5.623413251903490728e-01
2.953617462102617537e+03 1.000000000000000000e+00
3.152701293596479900e+03 1.778279410038922759e+00
3.358658144668598652e+03 3.162277660168379523e+00
3.575398118974647332e+03 5.623413251903491172e+00
3.807756081000839004e+03 1.000000000000000000e+01
4.061159920982189306e+03 1.778279410038922848e+01
4.343646341407219552e+03 3.162277660168379256e+01
4.661154281249087944e+03 5.623413251903490817e+01
5.022347706847360314e+03 1.000000000000000000e+02
5.431285316823371431e+03 1.778279410038922776e+02
5.915733182421227866e+03 3.162277660168379612e+02
