# Temperature (K), Pressure (bars)
8.931153317601551862e+02 3.162277660168379394e-04
9.345083205237699531e+02 5.623413251903490971e-04
9.759013103065370842e+02 1.000000000000000021e-03
1.019615716122338881e+03 1.778279410038922752e-03
1.065073182450506238e+03 3.162277660168379394e-03
1.111542228923002085e+03 5.623413251903490971e-03
1.159315465033862438e+03 1.000000000000000021e-02
1.209913621357475677e+03 1.778279410038922925e-02
1.265023748617459432e+03 3.162277660168379134e-02
1.336785479870769223e+03 5.623413251903491145e-02
1.460235970837131617e+03 1.000000000000000056e-01
1.645042133737816584e+03 1.778279410038922925e-01
1.873898225431399169e+03 3.162277660168379412e-01
2.136888550387744999e+03 5.623413251903490728e-01
2.402862392573816578e+03 1.000000000000000000e+00
2.651328287539489793e+03 1.778279410038922759e+00
2.889212187754086244e+03 3.162277660168379523e+00
3.122741975277257552e+03 5.623413251903491172e+00
3.359228975276728306e+03 1.000000000000000000e+01
3.605774921084558628e+03 1.778279410038922848e+01
3.870912627354698088e+03 3.162277660168379256e+01
4.159581586453769887e+03 5.623413251903490817e+01
4.478517493063028269e+03 1.000000000000000000e+02
4.830625410729425312e+03 1.778279410038922776e+02
5.235404899651417509e+03 3.162277660168379612e+02
