# Temperature (K), Pressure (bars)
1.988265238096601934e+03 9.999999999999999547e-07
2.002174202374368178e+03 1.778279410038922901e-06
2.016083166652502769e+03 3.162277660168379191e-06
2.037540903863201493e+03 5.623413251903491208e-06
2.066158690487446620e+03 1.000000000000000082e-05
2.098689480814436592e+03 1.778279410038922901e-05
2.133089623293074055e+03 3.162277660168379530e-05
2.167410525220176623e+03 5.623413251903490700e-05
2.200015684749158027e+03 1.000000000000000048e-04
2.231491893298170453e+03 1.778279410038922698e-04
2.264210634643879985e+03 3.162277660168379394e-04
2.300797309929685980e+03 5.623413251903490971e-04
2.342734247578941904e+03 1.000000000000000021e-03
2.392234727248081072e+03 1.778279410038922752e-03
2.450068742614145776e+03 3.162277660168379394e-03
2.522595071554472270e+03 5.623413251903490971e-03
2.619697732976782390e+03 1.000000000000000021e-02
2.734883707409153430e+03 1.778279410038922925e-02
2.860557692850830790e+03 3.162277660168379134e-02
2.998677455810906395e+03 5.623413251903491145e-02
3.151515638993622815e+03 1.000000000000000056e-01
3.322381792974603741e+03 1.778279410038922925e-01
3.515041181032835993e+03 3.162277660168379412e-01
3.733061325179056439e+03 5.623413251903490728e-01
3.980824368519071413e+03 1.000000000000000000e+00
4.267411615187926145e+03 1.778279410038922759e+00
4.588834947641576946e+03 3.162277660168379523e+00
4.990061000717065326e+03 5.623413251903491172e+00
5.520568154880535985e+03 1.000000000000000000e+01
6.271863422815853482e+03 1.778279410038922848e+01
7.403078332102846616e+03 3.162277660168379256e+01
9.021794020271616318e+03 5.623413251903490817e+01
1.101311479404599049e+04 1.000000000000000000e+02
1.340577039351701205e+04 1.778279410038922776e+02
1.625988935515684898e+04 3.162277660168379612e+02
