# Temperature (K), Pressure (bars)
8.743412517792095286e+02 1.000000000000000048e-04
9.272368563888578592e+02 1.778279410038922698e-04
9.801324622739709866e+02 3.162277660168379394e-04
1.032248877687691447e+03 5.623413251903490971e-04
1.084173791493134104e+03 1.000000000000000021e-03
1.137924247285669708e+03 1.778279410038922752e-03
1.196124407530604230e+03 3.162277660168379394e-03
1.261396222669324970e+03 5.623413251903490971e-03
1.339174201539014120e+03 1.000000000000000021e-02
1.434117944994554591e+03 1.778279410038922925e-02
1.571357578060961032e+03 3.162277660168379134e-02
1.779851302476797173e+03 5.623413251903491145e-02
2.029413057213889942e+03 1.000000000000000056e-01
2.273186291829001220e+03 1.778279410038922925e-01
2.498129020849653443e+03 3.162277660168379412e-01
2.707268803269455020e+03 5.623413251903490728e-01
2.907970761548756855e+03 1.000000000000000000e+00
3.107181785138773193e+03 1.778279410038922759e+00
3.311020913411844049e+03 3.162277660168379523e+00
3.524970301322029627e+03 5.623413251903491172e+00
3.754061251466014255e+03 1.000000000000000000e+01
4.003520637584348606e+03 1.778279410038922848e+01
4.281536535959548019e+03 3.162277660168379256e+01
4.592944696276318609e+03 5.623413251903490817e+01
4.945920011776317551e+03 1.000000000000000000e+02
5.344444275891807592e+03 1.778279410038922776e+02
5.814750980902295851e+03 3.162277660168379612e+02
