# Temperature (K), Pressure (bars)
1.015433032024521822e+03 3.162277660168379394e-04
1.063011090309973497e+03 5.623413251903490971e-04
1.110589150645913378e+03 1.000000000000000021e-03
1.157000823285169872e+03 1.778279410038922752e-03
1.204565833968037850e+03 3.162277660168379394e-03
1.254880159091944734e+03 5.623413251903490971e-03
1.308863515963731516e+03 1.000000000000000021e-02
1.369512105326536357e+03 1.778279410038922925e-02
1.439880180427890764e+03 3.162277660168379134e-02
1.522101444044501022e+03 5.623413251903491145e-02
1.620814352223817650e+03 1.000000000000000056e-01
1.737985336154961260e+03 1.778279410038922925e-01
1.872370825786916157e+03 3.162277660168379412e-01
2.032527531329059912e+03 5.623413251903490728e-01
2.244772045669863473e+03 1.000000000000000000e+00
2.505101761124032691e+03 1.778279410038922759e+00
2.765413061914065565e+03 3.162277660168379523e+00
3.010318088911495124e+03 5.623413251903491172e+00
3.254514335046759697e+03 1.000000000000000000e+01
3.505336901193306403e+03 1.778279410038922848e+01
3.771170140203620122e+03 3.162277660168379256e+01
4.057890012904865216e+03 5.623413251903490817e+01
4.372314635460232239e+03 1.000000000000000000e+02
4.717745699730688102e+03 1.778279410038922776e+02
5.112165221448839475e+03 3.162277660168379612e+02
