# Temperature (K), Pressure (bars)
9.671483875257572436e+02 1.778279410038922901e-05
1.010543063624394563e+03 3.162277660168379530e-05
1.053937740025445919e+03 5.623413251903490700e-05
1.097262802899874259e+03 1.000000000000000048e-04
1.142496408758562211e+03 1.778279410038922698e-04
1.191272614018606191e+03 3.162277660168379394e-04
1.244050258671353504e+03 5.623413251903490971e-04
1.301127344518605014e+03 1.000000000000000021e-03
1.364518683792503225e+03 1.778279410038922752e-03
1.441813590600780799e+03 3.162277660168379394e-03
1.546499587625293088e+03 5.623413251903490971e-03
1.680504564873175468e+03 1.000000000000000021e-02
1.844800919635554919e+03 1.778279410038922925e-02
2.042460451622307801e+03 3.162277660168379134e-02
2.248946449234469128e+03 5.623413251903491145e-02
2.443215350521806613e+03 1.000000000000000056e-01
2.628354096244946504e+03 1.778279410038922925e-01
2.810203295648192125e+03 3.162277660168379412e-01
2.993010960415576847e+03 5.623413251903490728e-01
3.179718683548981971e+03 1.000000000000000000e+00
3.373465692195841257e+03 1.778279410038922759e+00
3.578347530985904541e+03 3.162277660168379523e+00
3.799023520637302227e+03 5.623413251903491172e+00
4.040495384269411261e+03 1.000000000000000000e+01
4.308435463821943813e+03 1.778279410038922848e+01
4.609774593261059636e+03 3.162277660168379256e+01
4.953857012929916891e+03 5.623413251903490817e+01
5.357583911907577203e+03 1.000000000000000000e+02
5.832909738887338790e+03 1.778279410038922776e+02
6.402499641120941305e+03 3.162277660168379612e+02
