# Temperature (K), Pressure (bars)
1.934011253405073376e+03 9.999999999999999547e-07
1.979636911283390873e+03 1.778279410038922901e-06
2.025262569162418686e+03 3.162277660168379191e-06
2.074239467219043945e+03 5.623413251903491208e-06
2.123499385550314400e+03 1.000000000000000082e-05
2.169447663711855057e+03 1.778279410038922901e-05
2.210057480467309688e+03 3.162277660168379530e-05
2.244994559288574237e+03 5.623413251903490700e-05
2.276141751800126258e+03 1.000000000000000048e-04
2.305869569258174124e+03 1.778279410038922698e-04
2.336302993277502082e+03 3.162277660168379394e-04
2.369468903423869051e+03 5.623413251903490971e-04
2.407265984844072591e+03 1.000000000000000021e-03
2.451453279064580329e+03 1.778279410038922752e-03
2.504021511724203265e+03 3.162277660168379394e-03
2.567386491431632294e+03 5.623413251903490971e-03
2.643930362319822962e+03 1.000000000000000021e-02
2.738782099070998811e+03 1.778279410038922925e-02
2.855246965222852396e+03 3.162277660168379134e-02
2.989514782931274567e+03 5.623413251903491145e-02
3.140892386497705957e+03 1.000000000000000056e-01
3.313330169856613793e+03 1.778279410038922925e-01
3.509109240068753934e+03 3.162277660168379412e-01
3.729637337700376520e+03 5.623413251903490728e-01
3.978281573871499404e+03 1.000000000000000000e+00
4.264084854920803991e+03 1.778279410038922759e+00
4.584496336550326305e+03 3.162277660168379523e+00
4.983153686705291875e+03 5.623413251903491172e+00
5.505697466602665372e+03 1.000000000000000000e+01
6.232659085873671756e+03 1.778279410038922848e+01
7.297920297500093511e+03 3.162277660168379256e+01
8.855899863304188329e+03 5.623413251903490817e+01
1.080959432519483562e+04 1.000000000000000000e+02
1.315572596837186757e+04 1.778279410038922776e+02
1.595174031660473884e+04 3.162277660168379612e+02
