# Temperature (K), Pressure (bars)
1.126804208632602013e+03 3.162277660168379530e-05
1.163680014067319462e+03 5.623413251903490700e-05
1.200555822419720471e+03 1.000000000000000048e-04
1.240731336023560061e+03 1.778279410038922698e-04
1.284377808121684893e+03 3.162277660168379394e-04
1.331712926412722254e+03 5.623413251903490971e-04
1.384451959224011716e+03 1.000000000000000021e-03
1.447093442732241783e+03 1.778279410038922752e-03
1.515823226399004625e+03 3.162277660168379394e-03
1.591505128616719730e+03 5.623413251903490971e-03
1.684136227710984485e+03 1.000000000000000021e-02
1.779849236435272132e+03 1.778279410038922925e-02
1.868860045216349135e+03 3.162277660168379134e-02
1.966218884233262543e+03 5.623413251903491145e-02
2.086016335073747541e+03 1.000000000000000056e-01
2.250834194727078284e+03 1.778279410038922925e-01
2.460322826841611459e+03 3.162277660168379412e-01
2.671915309748416348e+03 5.623413251903490728e-01
2.871408243179737838e+03 1.000000000000000000e+00
3.072394746308761114e+03 1.778279410038922759e+00
3.279688856443141503e+03 3.162277660168379523e+00
3.496827992716675908e+03 5.623413251903491172e+00
3.727988144019356241e+03 1.000000000000000000e+01
3.978321134758934932e+03 1.778279410038922848e+01
4.255493332857498899e+03 3.162277660168379256e+01
4.565368611555169082e+03 5.623413251903490817e+01
4.916115564394822286e+03 1.000000000000000000e+02
5.311621895804266387e+03 1.778279410038922776e+02
5.777763706081287637e+03 3.162277660168379612e+02
