# Temperature (K), Pressure (bars)
8.475668262568148066e+02 5.623413251903490971e-04
8.917427753839349407e+02 1.000000000000000021e-03
9.359187254123776256e+02 1.778279410038922752e-03
9.793277787993381480e+02 3.162277660168379394e-03
1.023267567227777590e+03 5.623413251903490971e-03
1.067986322976722931e+03 1.000000000000000021e-02
1.114238958963917639e+03 1.778279410038922925e-02
1.164553649675611041e+03 3.162277660168379134e-02
1.223023415292897653e+03 5.623413251903491145e-02
1.295489744185093514e+03 1.000000000000000056e-01
1.398965653805583088e+03 1.778279410038922925e-01
1.551405499964380851e+03 3.162277660168379412e-01
1.763473714526540107e+03 5.623413251903490728e-01
2.028898354161843372e+03 1.000000000000000000e+00
2.309108601630234716e+03 1.778279410038922759e+00
2.579504636012086848e+03 3.162277660168379523e+00
2.841192734006309365e+03 5.623413251903491172e+00
3.097201772700182573e+03 1.000000000000000000e+01
3.354572792370973730e+03 1.778279410038922848e+01
3.622854804963435527e+03 3.162277660168379256e+01
3.908092182921411222e+03 5.623413251903490817e+01
4.217341251352399922e+03 1.000000000000000000e+02
4.553935591124770326e+03 1.778279410038922776e+02
4.934794598587501241e+03 3.162277660168379612e+02
