# Temperature (K), Pressure (bars)
1.113705654292359441e+03 3.162277660168379530e-05
1.156793988839596523e+03 5.623413251903490700e-05
1.199882325493226745e+03 1.000000000000000048e-04
1.244349443778739442e+03 1.778279410038922698e-04
1.290623293158481601e+03 3.162277660168379394e-04
1.339543833368957166e+03 5.623413251903490971e-04
1.393510607177914380e+03 1.000000000000000021e-03
1.454643039069627093e+03 1.778279410038922752e-03
1.523855493608752113e+03 3.162277660168379394e-03
1.601623832622077089e+03 5.623413251903490971e-03
1.685490536697520383e+03 1.000000000000000021e-02
1.785405317090634298e+03 1.778279410038922925e-02
1.908249216607000335e+03 3.162277660168379134e-02
2.052368535282369521e+03 5.623413251903491145e-02
2.229488433877353145e+03 1.000000000000000056e-01
2.426606079535325534e+03 1.778279410038922925e-01
2.619607934871058205e+03 3.162277660168379412e-01
2.808528742874035743e+03 5.623413251903490728e-01
2.999100003074740016e+03 1.000000000000000000e+00
3.195345769852040576e+03 1.778279410038922759e+00
3.400367571004333513e+03 3.162277660168379523e+00
3.617570602349081128e+03 5.623413251903491172e+00
3.851325829867260381e+03 1.000000000000000000e+01
4.106988671960652937e+03 1.778279410038922848e+01
4.392664312448131568e+03 3.162277660168379256e+01
4.714648485828488447e+03 5.623413251903490817e+01
5.082202690417931990e+03 1.000000000000000000e+02
5.499792529361016022e+03 1.778279410038922776e+02
5.996997162103481969e+03 3.162277660168379612e+02
