# Temperature (K), Pressure (bars)
1.204623366561553667e+04 5.623413251903491208e-06
1.415483373496003151e+04 1.000000000000000082e-05
1.622232605699666601e+04 1.778279410038922901e-05
1.810930027204554062e+04 3.162277660168379530e-05
1.975594164701488990e+04 5.623413251903490700e-05
2.117941743739477170e+04 1.000000000000000048e-04
2.243862073173862882e+04 1.778279410038922698e-04
2.360015853173929281e+04 3.162277660168379394e-04
2.471782626818607605e+04 5.623413251903490971e-04
2.583370876354811480e+04 1.000000000000000021e-03
2.698215592267023385e+04 1.778279410038922752e-03
2.819320339490664264e+04 3.162277660168379394e-03
2.949837315529778061e+04 5.623413251903490971e-03
3.093284799845855741e+04 1.000000000000000021e-02
3.254128217092412524e+04 1.778279410038922925e-02
3.438001813776158087e+04 3.162277660168379134e-02
3.652342104899404512e+04 5.623413251903491145e-02
3.907071083036917116e+04 1.000000000000000056e-01
4.215023230821661855e+04 1.778279410038922925e-01
4.593005682342303044e+04 3.162277660168379412e-01
5.063084632932338718e+04 5.623413251903490728e-01
5.652839159435188049e+04 1.000000000000000000e+00
6.398139894878032646e+04 1.778279410038922759e+00
7.343289714795432519e+04 3.162277660168379523e+00
8.544425339799931680e+04 5.623413251903491172e+00
1.006985717963778588e+05 1.000000000000000000e+01
1.200323725287567650e+05 1.778279410038922848e+01
1.444345862841319467e+05 3.162277660168379256e+01
1.750364793889390712e+05 5.623413251903490817e+01
2.130047326136862393e+05 1.000000000000000000e+02
2.593423261480515648e+05 1.778279410038922776e+02
3.146308010003649979e+05 3.162277660168379612e+02
