# Temperature (K), Pressure (bars)
9.789467703144498500e+02 3.162277660168379394e-03
1.019509177216629610e+03 5.623413251903490971e-03
1.060071584163544458e+03 1.000000000000000021e-02
1.099561696655607420e+03 1.778279410038922925e-02
1.138988172993596208e+03 3.162277660168379134e-02
1.180328565856056912e+03 5.623413251903491145e-02
1.225166315548406146e+03 1.000000000000000056e-01
1.275497605975139777e+03 1.778279410038922925e-01
1.335205116666204731e+03 3.162277660168379412e-01
1.411061951933170121e+03 5.623413251903490728e-01
1.520949598679852443e+03 1.000000000000000000e+00
1.669455876895305892e+03 1.778279410038922759e+00
1.865301278243879779e+03 3.162277660168379523e+00
2.128429830498061619e+03 5.623413251903491172e+00
2.427344694463334690e+03 1.000000000000000000e+01
2.728005927133237492e+03 1.778279410038922848e+01
3.031335799863528337e+03 3.162277660168379256e+01
3.336272619946721079e+03 5.623413251903490817e+01
3.649405678665536470e+03 1.000000000000000000e+02
3.975684928364124517e+03 1.778279410038922776e+02
4.329910274411411592e+03 3.162277660168379612e+02
