# Temperature (K), Pressure (bars)
1.594086964248365803e+03 3.162277660168379191e-06
1.605903363751972847e+03 5.623413251903491208e-06
1.623747813213991321e+03 1.000000000000000082e-05
1.646634776103885542e+03 1.778279410038922901e-05
1.676325417589874178e+03 3.162277660168379530e-05
1.714101824466724338e+03 5.623413251903490700e-05
1.758833580147454313e+03 1.000000000000000048e-04
1.810344001357828802e+03 1.778279410038922698e-04
1.867321326527297970e+03 3.162277660168379394e-04
1.928214980148936775e+03 5.623413251903490971e-04
1.993503624651631071e+03 1.000000000000000021e-03
2.063411566873174252e+03 1.778279410038922752e-03
2.142110243803116646e+03 3.162277660168379394e-03
2.241271402506031791e+03 5.623413251903490971e-03
2.361989216275476792e+03 1.000000000000000021e-02
2.492138958955185444e+03 1.778279410038922925e-02
2.626956455727458888e+03 3.162277660168379134e-02
2.768516792302532849e+03 5.623413251903491145e-02
2.918576610819543021e+03 1.000000000000000056e-01
3.079120707898256114e+03 1.778279410038922925e-01
3.252315549446535442e+03 3.162277660168379412e-01
3.439966671843702898e+03 5.623413251903490728e-01
3.643517380680854785e+03 1.000000000000000000e+00
3.865518149498726871e+03 1.778279410038922759e+00
4.111018109992979589e+03 3.162277660168379523e+00
4.387705468397718505e+03 5.623413251903491172e+00
4.706289328184792794e+03 1.000000000000000000e+01
5.081671665740343087e+03 1.778279410038922848e+01
5.539020748130003085e+03 3.162277660168379256e+01
6.116955079402780939e+03 5.623413251903490817e+01
6.882264429093522267e+03 1.000000000000000000e+02
7.948229492013309937e+03 1.778279410038922776e+02
9.450156541318425298e+03 3.162277660168379612e+02
