# Temperature (K), Pressure (bars)
2.016072320505027847e+03 9.999999999999999547e-07
2.030814622662536749e+03 1.778279410038922901e-06
2.045556924820045879e+03 3.162277660168379191e-06
2.062410615930846689e+03 5.623413251903491208e-06
2.084012572955795804e+03 1.000000000000000082e-05
2.112933138697741015e+03 1.778279410038922901e-05
2.151145800086488180e+03 3.162277660168379530e-05
2.197208857756301768e+03 5.623413251903490700e-05
2.247831561891215188e+03 1.000000000000000048e-04
2.301446304396006781e+03 1.778279410038922698e-04
2.356376073955373158e+03 3.162277660168379394e-04
2.410991807393349063e+03 5.623413251903490971e-04
2.464714093951298764e+03 1.000000000000000021e-03
2.516675604177547939e+03 1.778279410038922752e-03
2.564268244965897793e+03 3.162277660168379394e-03
2.607590300320038750e+03 5.623413251903490971e-03
2.643050062535804045e+03 1.000000000000000021e-02
2.689994092000587898e+03 1.778279410038922925e-02
2.784106105278813629e+03 3.162277660168379134e-02
2.912451749156920869e+03 5.623413251903491145e-02
3.054150994398075909e+03 1.000000000000000056e-01
3.213732750890974785e+03 1.778279410038922925e-01
3.394319073479634881e+03 3.162277660168379412e-01
3.597261262780586094e+03 5.623413251903490728e-01
3.823312406871794337e+03 1.000000000000000000e+00
4.075954920256007426e+03 1.778279410038922759e+00
4.363612145808099740e+03 3.162277660168379523e+00
4.689016992777898849e+03 5.623413251903491172e+00
5.086222399064755336e+03 1.000000000000000000e+01
5.593611362907637158e+03 1.778279410038922848e+01
6.283825796959090439e+03 3.162277660168379256e+01
7.288219845259179237e+03 5.623413251903490817e+01
8.750057327757025632e+03 1.000000000000000000e+02
1.000000000000000000e+04 1.778279410038922776e+02
1.000000000000000000e+04 3.162277660168379612e+02
