# Temperature (K), Pressure (bars)
9.706876670607001643e+02 3.162277660168379394e-04
1.028019980464122000e+03 5.623413251903490971e-04
1.085352295146400365e+03 1.000000000000000021e-03
1.140353418639477241e+03 1.778279410038922752e-03
1.194823611342270397e+03 3.162277660168379394e-03
1.250170663340840065e+03 5.623413251903490971e-03
1.312923394853875834e+03 1.000000000000000021e-02
1.385073467828678531e+03 1.778279410038922925e-02
1.510274042251460514e+03 3.162277660168379134e-02
1.736313085052101997e+03 5.623413251903491145e-02
2.001594802303605320e+03 1.000000000000000056e-01
2.247828226237006220e+03 1.778279410038922925e-01
2.475872241841255800e+03 3.162277660168379412e-01
2.688097494963546524e+03 5.623413251903490728e-01
2.891714036103745912e+03 1.000000000000000000e+00
3.093320398477802883e+03 1.778279410038922759e+00
3.298804553134880280e+03 3.162277660168379523e+00
3.513745603602433675e+03 5.623413251903491172e+00
3.743357249203462288e+03 1.000000000000000000e+01
3.992933688475487997e+03 1.778279410038922848e+01
4.270543659650039444e+03 3.162277660168379256e+01
4.581241737712851318e+03 5.623413251903490817e+01
4.933106370006154975e+03 1.000000000000000000e+02
5.329946403780044420e+03 1.778279410038922776e+02
5.797623369755166095e+03 3.162277660168379612e+02
