# Temperature (K), Pressure (bars)
9.152574151552418016e+02 1.000000000000000048e-04
9.636907509781689214e+02 1.778279410038922698e-04
1.012124088458931624e+03 3.162277660168379394e-04
1.059400737669201590e+03 5.623413251903490971e-04
1.107485547981300670e+03 1.000000000000000021e-03
1.157508886438355148e+03 1.778279410038922752e-03
1.209784195955532823e+03 3.162277660168379394e-03
1.264668028058472373e+03 5.623413251903490971e-03
1.322487735350393450e+03 1.000000000000000021e-02
1.388871319743981985e+03 1.778279410038922925e-02
1.473983555183752969e+03 3.162277660168379134e-02
1.589023819753056159e+03 5.623413251903491145e-02
1.733024909747381116e+03 1.000000000000000056e-01
1.911999505397197026e+03 1.778279410038922925e-01
2.139612139645327716e+03 3.162277660168379412e-01
2.385380190575147935e+03 5.623413251903490728e-01
2.618557275225995909e+03 1.000000000000000000e+00
2.842090214574654965e+03 1.778279410038922759e+00
3.062153541515722736e+03 3.162277660168379523e+00
3.284789269090713788e+03 5.623413251903491172e+00
3.515864236360167979e+03 1.000000000000000000e+01
3.761315277289039386e+03 1.778279410038922848e+01
4.029063044488625565e+03 3.162277660168379256e+01
4.324132969339258125e+03 5.623413251903490817e+01
4.653560422637436204e+03 1.000000000000000000e+02
5.020597262060421599e+03 1.778279410038922776e+02
5.446581391014578003e+03 3.162277660168379612e+02
