# Temperature (K), Pressure (bars)
2.090276554045184639e+03 9.999999999999999547e-07
2.108727958515668888e+03 1.778279410038922901e-06
2.127179362986152228e+03 3.162277660168379191e-06
2.150924628197775291e+03 5.623413251903491208e-06
2.179708794151786606e+03 1.000000000000000082e-05
2.212563731267110143e+03 1.778279410038922901e-05
2.249376070998888736e+03 3.162277660168379530e-05
2.290018180556348852e+03 5.623413251903490700e-05
2.333512307421396144e+03 1.000000000000000048e-04
2.376921733360925828e+03 1.778279410038922698e-04
2.417825528196766300e+03 3.162277660168379394e-04
2.455470787362832198e+03 5.623413251903490971e-04
2.489589039368172507e+03 1.000000000000000021e-03
2.520464855161593732e+03 1.778279410038922752e-03
2.550475951308148979e+03 3.162277660168379394e-03
2.582570254527839552e+03 5.623413251903490971e-03
2.622572427927021181e+03 1.000000000000000021e-02
2.670348474759156943e+03 1.778279410038922925e-02
2.736986677262610101e+03 3.162277660168379134e-02
2.844926811465949413e+03 5.623413251903491145e-02
2.981998314155717253e+03 1.000000000000000056e-01
3.132804759869804457e+03 1.778279410038922925e-01
3.301813761208265078e+03 3.162277660168379412e-01
3.490915631425949869e+03 5.623413251903490728e-01
3.700815177158199276e+03 1.000000000000000000e+00
3.933039706441726139e+03 1.778279410038922759e+00
4.192240661908285801e+03 3.162277660168379523e+00
4.487017611050875530e+03 5.623413251903491172e+00
4.825498951409270376e+03 1.000000000000000000e+01
5.233995201755758899e+03 1.778279410038922848e+01
5.744451017401044737e+03 3.162277660168379256e+01
6.413779620478891047e+03 5.623413251903490817e+01
7.344752395057036665e+03 1.000000000000000000e+02
8.682081443258801301e+03 1.778279410038922776e+02
1.000000000000000000e+04 3.162277660168379612e+02
