# Temperature (K), Pressure (bars)
1.108177291708505209e+03 3.162277660168379394e-04
1.159126348157403072e+03 5.623413251903490971e-04
1.210075406897449056e+03 1.000000000000000021e-03
1.260734866201319846e+03 1.778279410038922752e-03
1.314269895939699836e+03 3.162277660168379394e-03
1.374790731614663855e+03 5.623413251903490971e-03
1.442200914026419014e+03 1.000000000000000021e-02
1.514058292257505627e+03 1.778279410038922925e-02
1.595987872990616324e+03 3.162277660168379134e-02
1.688530370800313449e+03 5.623413251903491145e-02
1.782401553967848940e+03 1.000000000000000056e-01
1.887177970798122715e+03 1.778279410038922925e-01
2.011200938248010971e+03 3.162277660168379412e-01
2.174815921633386097e+03 5.623413251903490728e-01
2.402932434253908468e+03 1.000000000000000000e+00
2.652454041713475817e+03 1.778279410038922759e+00
2.888716925667091800e+03 3.162277660168379523e+00
3.122610519440608186e+03 5.623413251903491172e+00
3.360530849077476887e+03 1.000000000000000000e+01
3.608396137930973055e+03 1.778279410038922848e+01
3.873906380864174935e+03 3.162277660168379256e+01
4.162825569264913611e+03 5.623413251903490817e+01
4.482035785791560556e+03 1.000000000000000000e+02
4.834471498530016106e+03 1.778279410038922776e+02
5.239686771181063705e+03 3.162277660168379612e+02
