# Temperature (K), Pressure (bars)
1.625924549788710010e+03 9.999999999999999547e-07
1.653453986255397012e+03 1.778279410038922901e-06
1.680983422729785161e+03 3.162277660168379191e-06
1.717239160363027167e+03 5.623413251903491208e-06
1.758683972116750738e+03 1.000000000000000082e-05
1.802857738560952612e+03 1.778279410038922901e-05
1.847705283557481607e+03 3.162277660168379530e-05
1.890793581970194282e+03 5.623413251903490700e-05
1.933083400224851175e+03 1.000000000000000048e-04
1.976362226826246570e+03 1.778279410038922698e-04
2.022810731340921166e+03 3.162277660168379394e-04
2.073070193055045365e+03 5.623413251903490971e-04
2.127991283706215654e+03 1.000000000000000021e-03
2.188759007105310502e+03 1.778279410038922752e-03
2.259743838191840950e+03 3.162277660168379394e-03
2.350818542045113190e+03 5.623413251903490971e-03
2.462326848269879065e+03 1.000000000000000021e-02
2.585460637509548178e+03 1.778279410038922925e-02
2.717088493321650276e+03 3.162277660168379134e-02
2.858765250938377903e+03 5.623413251903491145e-02
3.012512950254436419e+03 1.000000000000000056e-01
3.180592087101550533e+03 1.778279410038922925e-01
3.364434299283795553e+03 3.162277660168379412e-01
3.564544391923307558e+03 5.623413251903490728e-01
3.782660753104549258e+03 1.000000000000000000e+00
4.023610126936951019e+03 1.778279410038922759e+00
4.295537186571652455e+03 3.162277660168379523e+00
4.610439051795399791e+03 5.623413251903491172e+00
4.982198555379783102e+03 1.000000000000000000e+01
5.444813317221081888e+03 1.778279410038922848e+01
6.049398248668128872e+03 3.162277660168379256e+01
6.892006481702094788e+03 5.623413251903490817e+01
8.123193247366196374e+03 1.000000000000000000e+02
9.832546728207114938e+03 1.778279410038922776e+02
1.192427904151961411e+04 3.162277660168379612e+02
