# Temperature (K), Pressure (bars)
1.919380091465181522e+03 9.999999999999999547e-07
1.930632629281293248e+03 1.778279410038922901e-06
1.941885167103928325e+03 3.162277660168379191e-06
1.961236376481948355e+03 5.623413251903491208e-06
1.990084448189931663e+03 1.000000000000000082e-05
2.028354258577805012e+03 1.778279410038922901e-05
2.072649518165832887e+03 3.162277660168379530e-05
2.118467410174519046e+03 5.623413251903490700e-05
2.163862275145793319e+03 1.000000000000000048e-04
2.206919760548730665e+03 1.778279410038922698e-04
2.246456132508076735e+03 3.162277660168379394e-04
2.282971642217565204e+03 5.623413251903490971e-04
2.316773770383690589e+03 1.000000000000000021e-03
2.348838288668904170e+03 1.778279410038922752e-03
2.380690151964503457e+03 3.162277660168379394e-03
2.417892704568858790e+03 5.623413251903490971e-03
2.461049135483317514e+03 1.000000000000000021e-02
2.523848189956438091e+03 1.778279410038922925e-02
2.629416178920457696e+03 3.162277660168379134e-02
2.760987006255352753e+03 5.623413251903491145e-02
2.901181158931370646e+03 1.000000000000000056e-01
3.055734475652469882e+03 1.778279410038922925e-01
3.226809988782997152e+03 3.162277660168379412e-01
3.414496593201370615e+03 5.623413251903490728e-01
3.618227506361691212e+03 1.000000000000000000e+00
3.839589550408791183e+03 1.778279410038922759e+00
4.083251277563622352e+03 3.162277660168379523e+00
4.356538549391523702e+03 5.623413251903491172e+00
4.669590928434677153e+03 1.000000000000000000e+01
5.036101924393747140e+03 1.778279410038922848e+01
5.479429349267681573e+03 3.162277660168379256e+01
6.034248265078213080e+03 5.623413251903490817e+01
6.760488888430231782e+03 1.000000000000000000e+02
7.758570035172147982e+03 1.778279410038922776e+02
9.163002641668730575e+03 3.162277660168379612e+02
