# Temperature (K), Pressure (bars)
1.845426644879935793e+03 9.999999999999999547e-07
1.863755201124206451e+03 1.778279410038922901e-06
1.882083757368913666e+03 3.162277660168379191e-06
1.908560056241658458e+03 5.623413251903491208e-06
1.941476047944676338e+03 1.000000000000000082e-05
1.977916844915664115e+03 1.778279410038922901e-05
2.018684878370483602e+03 3.162277660168379530e-05
2.060744129980661455e+03 5.623413251903490700e-05
2.100405252932057920e+03 1.000000000000000048e-04
2.138335315919498953e+03 1.778279410038922698e-04
2.176364094864713479e+03 3.162277660168379394e-04
2.216518266055996719e+03 5.623413251903490971e-04
2.260481866580025326e+03 1.000000000000000021e-03
2.311242321501631068e+03 1.778279410038922752e-03
2.369290527742183258e+03 3.162277660168379394e-03
2.441981338930149832e+03 5.623413251903490971e-03
2.541158959621976464e+03 1.000000000000000021e-02
2.658319126920500821e+03 1.778279410038922925e-02
2.784319118885942771e+03 3.162277660168379134e-02
2.921512765094757924e+03 5.623413251903491145e-02
3.071470614645398200e+03 1.000000000000000056e-01
3.236529151692018331e+03 1.778279410038922925e-01
3.419469696436289723e+03 3.162277660168379412e-01
3.622991984094616782e+03 5.623413251903490728e-01
3.849711803399983182e+03 1.000000000000000000e+00
4.104560530427240337e+03 1.778279410038922759e+00
4.396737230988383999e+03 3.162277660168379523e+00
4.731125621058465185e+03 5.623413251903491172e+00
5.142983862794864763e+03 1.000000000000000000e+01
5.673048566762534392e+03 1.778279410038922848e+01
6.389897181924610777e+03 3.162277660168379256e+01
7.411681975647818945e+03 5.623413251903490817e+01
8.905720483458637318e+03 1.000000000000000000e+02
1.083115938924488182e+04 1.778279410038922776e+02
1.313340777744823208e+04 3.162277660168379612e+02
