# Temperature (K), Pressure (bars)
1.115568952806090465e+03 3.162277660168379530e-05
1.157183032995363874e+03 5.623413251903490700e-05
1.198797116156433958e+03 1.000000000000000048e-04
1.243708944180042408e+03 1.778279410038922698e-04
1.292398012059970824e+03 3.162277660168379394e-04
1.344197379816403327e+03 5.623413251903490971e-04
1.399524774998555358e+03 1.000000000000000021e-03
1.459396497044644093e+03 1.778279410038922752e-03
1.524072438727700728e+03 3.162277660168379394e-03
1.596855022866096078e+03 5.623413251903490971e-03
1.680085536587796241e+03 1.000000000000000021e-02
1.782966877360655417e+03 1.778279410038922925e-02
1.916639535900625333e+03 3.162277660168379134e-02
2.087640024784926936e+03 5.623413251903491145e-02
2.291645182969957659e+03 1.000000000000000056e-01
2.494324905938632583e+03 1.778279410038922925e-01
2.681561027024034956e+03 3.162277660168379412e-01
2.866632231929116642e+03 5.623413251903490728e-01
3.054847037312572411e+03 1.000000000000000000e+00
3.249741699373877509e+03 1.778279410038922759e+00
3.454324671027850854e+03 3.162277660168379523e+00
3.672115619890332255e+03 5.623413251903491172e+00
3.907596708100466003e+03 1.000000000000000000e+01
4.166053369400134216e+03 1.778279410038922848e+01
4.453716548599700218e+03 3.162277660168379256e+01
4.778694568593673466e+03 5.623413251903490817e+01
5.155846296159810663e+03 1.000000000000000000e+02
5.594571939291578929e+03 1.778279410038922776e+02
6.113380635100485961e+03 3.162277660168379612e+02
