# Temperature (K), Pressure (bars)
1.035400938989950191e+03 3.162277660168379394e-04
1.090735483415301815e+03 5.623413251903490971e-04
1.146070029760175430e+03 1.000000000000000021e-03
1.200915258522354634e+03 1.778279410038922752e-03
1.256425354195231421e+03 3.162277660168379394e-03
1.314403717054399522e+03 5.623413251903490971e-03
1.379052033634412737e+03 1.000000000000000021e-02
1.451122920922708090e+03 1.778279410038922925e-02
1.533619888214724597e+03 3.162277660168379134e-02
1.634708211747436508e+03 5.623413251903491145e-02
1.753043798223196291e+03 1.000000000000000056e-01
1.884090500972906966e+03 1.778279410038922925e-01
2.054560441228090895e+03 3.162277660168379412e-01
2.286092908386346153e+03 5.623413251903490728e-01
2.533781639656935113e+03 1.000000000000000000e+00
2.765566078463258236e+03 1.778279410038922759e+00
2.991731497628982197e+03 3.162277660168379523e+00
3.218708566717868507e+03 5.623413251903491172e+00
3.452236803697212054e+03 1.000000000000000000e+01
3.698275845068483250e+03 1.778279410038922848e+01
3.964725287992147059e+03 3.162277660168379256e+01
4.256917076731777343e+03 5.623413251903490817e+01
4.581790009286024542e+03 1.000000000000000000e+02
4.942574921430803442e+03 1.778279410038922776e+02
5.359594959412872413e+03 3.162277660168379612e+02
