# Temperature (K), Pressure (bars)
7.945265438392425494e+02 5.623413251903491208e-06
8.503248912115670919e+02 1.000000000000000082e-05
9.061232406175899996e+02 1.778279410038922901e-05
9.626606771022704834e+02 3.162277660168379530e-05
1.020189397633791259e+03 5.623413251903490700e-05
1.079926471978916197e+03 1.000000000000000048e-04
1.138028050800306573e+03 1.778279410038922698e-04
1.217677874197605206e+03 3.162277660168379394e-04
1.347032981736633701e+03 5.623413251903490971e-04
1.508101161350676648e+03 1.000000000000000021e-03
1.667388242050039935e+03 1.778279410038922752e-03
1.782778458791076446e+03 3.162277660168379394e-03
1.857005423849787576e+03 5.623413251903490971e-03
1.925612996550280741e+03 1.000000000000000021e-02
2.001104257131123177e+03 1.778279410038922925e-02
2.086910599742040176e+03 3.162277660168379134e-02
2.198165475460079961e+03 5.623413251903491145e-02
2.354255582082018009e+03 1.000000000000000056e-01
2.534092624748598610e+03 1.778279410038922925e-01
2.713970118695198835e+03 3.162277660168379412e-01
2.896255021081626182e+03 5.623413251903490728e-01
3.084317714116336901e+03 1.000000000000000000e+00
3.280049125284653201e+03 1.778279410038922759e+00
3.485649315690552157e+03 3.162277660168379523e+00
3.704811295509172396e+03 5.623413251903491172e+00
3.942358424344414288e+03 1.000000000000000000e+01
4.203787128276306248e+03 1.778279410038922848e+01
4.495542161502446106e+03 3.162277660168379256e+01
4.825997832615316838e+03 5.623413251903490817e+01
5.210430389259595358e+03 1.000000000000000000e+02
5.658712090060518676e+03 1.778279410038922776e+02
6.189827088960099900e+03 3.162277660168379612e+02
