# Temperature (K), Pressure (bars)
1.142301267867674142e+03 9.999999999999999547e-07
1.166513874771400424e+03 1.778279410038922901e-06
1.190726481680808320e+03 3.162277660168379191e-06
1.221285034051685670e+03 5.623413251903491208e-06
1.258472544821494466e+03 1.000000000000000082e-05
1.301979944788437933e+03 1.778279410038922901e-05
1.351593289327919592e+03 3.162277660168379530e-05
1.408085659919001046e+03 5.623413251903490700e-05
1.469126768273227299e+03 1.000000000000000048e-04
1.537458243469798163e+03 1.778279410038922698e-04
1.620434614467732217e+03 3.162277660168379394e-04
1.709962940563628308e+03 5.623413251903490971e-04
1.799900812535938485e+03 1.000000000000000021e-03
1.895210098778230531e+03 1.778279410038922752e-03
2.011018090239600724e+03 3.162277660168379394e-03
2.157941594445178453e+03 5.623413251903490971e-03
2.316638158027670215e+03 1.000000000000000021e-02
2.472597021529736594e+03 1.778279410038922925e-02
2.629283606640146445e+03 3.162277660168379134e-02
2.789198828582968417e+03 5.623413251903491145e-02
2.954712188458556739e+03 1.000000000000000056e-01
3.127877520181367800e+03 1.778279410038922925e-01
3.310046194709104384e+03 3.162277660168379412e-01
3.502780219509845665e+03 5.623413251903490728e-01
3.709519092069175713e+03 1.000000000000000000e+00
3.935711547112870903e+03 1.778279410038922759e+00
4.188344278527567440e+03 3.162277660168379523e+00
4.476548241919673274e+03 5.623413251903491172e+00
4.812366473992711690e+03 1.000000000000000000e+01
5.216985580085061883e+03 1.778279410038922848e+01
5.721644452936418929e+03 3.162277660168379256e+01
6.380986919795643189e+03 5.623413251903490817e+01
7.292782810835718919e+03 1.000000000000000000e+02
8.599069557316892315e+03 1.778279410038922776e+02
1.035986757713171392e+04 3.162277660168379612e+02
