# Temperature (K), Pressure (bars)
1.187530831136097959e+03 3.162277660168379394e-04
1.221750390844335243e+03 5.623413251903490971e-04
1.255969953273676083e+03 1.000000000000000021e-03
1.295511368119154895e+03 1.778279410038922752e-03
1.340509404473201357e+03 3.162277660168379394e-03
1.390428325875991050e+03 5.623413251903490971e-03
1.447258152134424336e+03 1.000000000000000021e-02
1.509782084589695160e+03 1.778279410038922925e-02
1.576341382547552939e+03 3.162277660168379134e-02
1.655358713064113772e+03 5.623413251903491145e-02
1.749524919263355514e+03 1.000000000000000056e-01
1.847876857132092482e+03 1.778279410038922925e-01
1.957781349707057188e+03 3.162277660168379412e-01
2.089097806095145188e+03 5.623413251903490728e-01
2.259811444431200016e+03 1.000000000000000000e+00
2.490921867480270066e+03 1.778279410038922759e+00
2.744599510509794982e+03 3.162277660168379523e+00
2.989476539849134497e+03 5.623413251903491172e+00
3.234591917860564536e+03 1.000000000000000000e+01
3.486449088315981044e+03 1.778279410038922848e+01
3.752455876284744136e+03 3.162277660168379256e+01
4.038798150174808598e+03 5.623413251903490817e+01
4.352320816639441546e+03 1.000000000000000000e+02
4.696199916059198586e+03 1.778279410038922776e+02
5.088372435049570413e+03 3.162277660168379612e+02
