# Temperature (K), Pressure (bars)
8.320772934546751003e+02 3.162277660168379394e-04
8.770214535669580300e+02 5.623413251903490971e-04
9.219656147393495758e+02 1.000000000000000021e-03
9.656095473136542751e+02 1.778279410038922752e-03
1.008886043931882000e+03 3.162277660168379394e-03
1.052996831362379908e+03 5.623413251903490971e-03
1.100156958081119683e+03 1.000000000000000021e-02
1.155612372876509426e+03 1.778279410038922925e-02
1.224009095688380285e+03 3.162277660168379134e-02
1.318650934507811371e+03 5.623413251903491145e-02
1.481882196412270787e+03 1.000000000000000056e-01
1.721411848349784577e+03 1.778279410038922925e-01
1.986577356477317153e+03 3.162277660168379412e-01
2.249888659366626143e+03 5.623413251903490728e-01
2.503935511153736570e+03 1.000000000000000000e+00
2.742110110406322747e+03 1.778279410038922759e+00
2.970259927067625540e+03 3.162277660168379523e+00
3.196693293646778329e+03 5.623413251903491172e+00
3.429006980969628785e+03 1.000000000000000000e+01
3.673803385770822842e+03 1.778279410038922848e+01
3.939658996928656052e+03 3.162277660168379256e+01
4.230730252686222229e+03 5.623413251903490817e+01
4.553751796517728508e+03 1.000000000000000000e+02
4.912144295728725410e+03 1.778279410038922776e+02
5.325228308710327838e+03 3.162277660168379612e+02
