# Temperature (K), Pressure (bars)
2.190347434860997510e+03 9.999999999999999547e-07
2.214166853150945826e+03 1.778279410038922901e-06
2.237986271440894143e+03 3.162277660168379191e-06
2.263358654128036051e+03 5.623413251903491208e-06
2.286960890594969442e+03 1.000000000000000082e-05
2.306003970116360506e+03 1.778279410038922901e-05
2.316762639578402286e+03 3.162277660168379530e-05
2.321064720205853973e+03 5.623413251903490700e-05
2.328660324663985648e+03 1.000000000000000048e-04
2.346830560953681015e+03 1.778279410038922698e-04
2.376942129605688478e+03 3.162277660168379394e-04
2.417853185893908176e+03 5.623413251903490971e-04
2.468737181638479342e+03 1.000000000000000021e-03
2.528936642840720651e+03 1.778279410038922752e-03
2.598174727730270661e+03 3.162277660168379394e-03
2.673200722783019955e+03 5.623413251903490971e-03
2.754335017752900512e+03 1.000000000000000021e-02
2.853929076649388207e+03 1.778279410038922925e-02
2.978288227877833378e+03 3.162277660168379134e-02
3.123740585582332187e+03 5.623413251903491145e-02
3.291568478929587400e+03 1.000000000000000056e-01
3.490565384293276566e+03 1.778279410038922925e-01
3.699192278794802405e+03 3.162277660168379412e-01
3.942156071490500835e+03 5.623413251903490728e-01
4.231226791773768127e+03 1.000000000000000000e+00
4.575400547301067490e+03 1.778279410038922759e+00
5.036213222442566803e+03 3.162277660168379523e+00
5.721328695812198930e+03 5.623413251903491172e+00
6.814414375956215736e+03 1.000000000000000000e+01
8.367921968689104688e+03 1.778279410038922848e+01
1.000000000000000000e+04 3.162277660168379256e+01
1.000000000000000000e+04 5.623413251903490817e+01
1.000000000000000000e+04 1.000000000000000000e+02
1.000000000000000000e+04 1.778279410038922776e+02
1.000000000000000000e+04 3.162277660168379612e+02
