# Temperature (K), Pressure (bars)
9.415728159087782387e+02 9.999999999999999547e-07
9.803693964072263043e+02 1.778279410038922901e-06
1.019165976910935228e+03 3.162277660168379191e-06
1.059906950803611835e+03 5.623413251903491208e-06
1.103972753066329460e+03 1.000000000000000082e-05
1.151089560675737175e+03 1.778279410038922901e-05
1.201253711236329764e+03 3.162277660168379530e-05
1.254592710150460334e+03 5.623413251903490700e-05
1.311152664811356772e+03 1.000000000000000048e-04
1.372186282764768748e+03 1.778279410038922698e-04
1.440011478836963306e+03 3.162277660168379394e-04
1.519582039729069947e+03 5.623413251903490971e-04
1.614156460380804219e+03 1.000000000000000021e-03
1.729954937513185087e+03 1.778279410038922752e-03
1.885621457119109436e+03 3.162277660168379394e-03
2.076548630679420057e+03 5.623413251903490971e-03
2.269178243108433890e+03 1.000000000000000021e-02
2.449415291077978964e+03 1.778279410038922925e-02
2.622667918852197545e+03 3.162277660168379134e-02
2.793403520295482849e+03 5.623413251903491145e-02
2.965003729926407686e+03 1.000000000000000056e-01
3.140051562025776548e+03 1.778279410038922925e-01
3.320945538963508625e+03 3.162277660168379412e-01
3.511129995773705105e+03 5.623413251903490728e-01
3.715433460446287427e+03 1.000000000000000000e+00
3.939633284604524306e+03 1.778279410038922759e+00
4.190636766595060180e+03 3.162277660168379523e+00
4.477457275906432187e+03 5.623413251903491172e+00
4.812882587374406285e+03 1.000000000000000000e+01
5.216973300506451778e+03 1.778279410038922848e+01
5.720534510944605245e+03 3.162277660168379256e+01
6.376220002113544069e+03 5.623413251903490817e+01
7.274882699445732214e+03 1.000000000000000000e+02
8.561610880830574388e+03 1.778279410038922776e+02
1.030848453904200869e+04 3.162277660168379612e+02
