# Temperature (K), Pressure (bars)
1.646133482971158628e+03 9.999999999999999547e-07
1.654553916407011457e+03 1.778279410038922901e-06
1.662974349852965588e+03 3.162277660168379191e-06
1.679158496279542987e+03 5.623413251903491208e-06
1.706340033154642015e+03 1.000000000000000082e-05
1.741114580655418877e+03 1.778279410038922901e-05
1.780140471504991183e+03 3.162277660168379530e-05
1.824110527661273636e+03 5.623413251903490700e-05
1.869103816721959447e+03 1.000000000000000048e-04
1.912135355603840708e+03 1.778279410038922698e-04
1.954196311521527605e+03 3.162277660168379394e-04
1.997152921549589564e+03 5.623413251903490971e-04
2.042975923651030143e+03 1.000000000000000021e-03
2.092520698096845081e+03 1.778279410038922752e-03
2.145827076295274310e+03 3.162277660168379394e-03
2.206275530944191814e+03 5.623413251903490971e-03
2.274424581794986807e+03 1.000000000000000021e-02
2.363534444397851075e+03 1.778279410038922925e-02
2.490265415236181980e+03 3.162277660168379134e-02
2.633470777503709542e+03 5.623413251903491145e-02
2.777974013511542125e+03 1.000000000000000056e-01
2.930974489687250752e+03 1.778279410038922925e-01
3.094891216596169215e+03 3.162277660168379412e-01
3.271703584177622361e+03 5.623413251903490728e-01
3.462643464724636942e+03 1.000000000000000000e+00
3.668898675663466747e+03 1.778279410038922759e+00
3.893205365521211661e+03 3.162277660168379523e+00
4.140406309059382693e+03 5.623413251903491172e+00
4.417271063327865704e+03 1.000000000000000000e+01
4.732904870826407205e+03 1.778279410038922848e+01
5.101855326971005525e+03 3.162277660168379256e+01
5.540584378860250581e+03 5.623413251903490817e+01
6.074640608949737725e+03 1.000000000000000000e+02
6.744667336286636782e+03 1.778279410038922776e+02
7.617380056808886366e+03 3.162277660168379612e+02
