# Temperature (K), Pressure (bars)
1.841711500621621781e+03 9.999999999999999547e-07
1.847395168381985513e+03 1.778279410038922901e-06
1.853078836143343779e+03 3.162277660168379191e-06
1.863385305456579999e+03 5.623413251903491208e-06
1.878646764418955172e+03 1.000000000000000082e-05
1.899788783007103348e+03 1.778279410038922901e-05
1.926763936500380396e+03 3.162277660168379530e-05
1.957755509552434887e+03 5.623413251903490700e-05
1.992730850230309443e+03 1.000000000000000048e-04
2.032094559777114227e+03 1.778279410038922698e-04
2.074965561622331734e+03 3.162277660168379394e-04
2.121436136836146034e+03 5.623413251903490971e-04
2.171960032866588335e+03 1.000000000000000021e-03
2.227952604317792066e+03 1.778279410038922752e-03
2.289668015016937716e+03 3.162277660168379394e-03
2.363106798777844233e+03 5.623413251903490971e-03
2.459796651370496875e+03 1.000000000000000021e-02
2.575328395005587481e+03 1.778279410038922925e-02
2.700553167635830960e+03 3.162277660168379134e-02
2.835455595142968832e+03 5.623413251903491145e-02
2.981701576668956477e+03 1.000000000000000056e-01
3.141634146340498773e+03 1.778279410038922925e-01
3.317670265696872775e+03 3.162277660168379412e-01
3.511247571358019286e+03 5.623413251903490728e-01
3.723306665426481231e+03 1.000000000000000000e+00
3.956671060661537012e+03 1.778279410038922759e+00
4.217562239743632745e+03 3.162277660168379523e+00
4.515681764180162645e+03 5.623413251903491172e+00
4.861295792436856573e+03 1.000000000000000000e+01
5.281524148698261342e+03 1.778279410038922848e+01
5.812499865336108087e+03 3.162277660168379256e+01
6.520447937904256833e+03 5.623413251903490817e+01
7.521476703112874020e+03 1.000000000000000000e+02
8.957526821615965673e+03 1.778279410038922776e+02
1.082236005292239861e+04 3.162277660168379612e+02
