# Temperature (K), Pressure (bars)
1.090553902066416640e+03 5.623413251903490700e-05
1.132398949947234541e+03 1.000000000000000048e-04
1.174244000259516270e+03 1.778279410038922698e-04
1.220807373308718752e+03 3.162277660168379394e-04
1.272555834493630755e+03 5.623413251903490971e-04
1.330247912523904233e+03 1.000000000000000021e-03
1.391920120172541147e+03 1.778279410038922752e-03
1.458722602645264033e+03 3.162277660168379394e-03
1.537357393337680151e+03 5.623413251903490971e-03
1.621713429857761184e+03 1.000000000000000021e-02
1.703875158301230385e+03 1.778279410038922925e-02
1.790182259889865918e+03 3.162277660168379134e-02
1.891400184864707171e+03 5.623413251903491145e-02
2.017391211825081882e+03 1.000000000000000056e-01
2.190834218632081502e+03 1.778279410038922925e-01
2.410291872512456393e+03 3.162277660168379412e-01
2.630109510822266657e+03 5.623413251903490728e-01
2.835011691058778524e+03 1.000000000000000000e+00
3.039327628233300857e+03 1.778279410038922759e+00
3.248126421051825673e+03 3.162277660168379523e+00
3.465381386071963789e+03 5.623413251903491172e+00
3.695797416569550478e+03 1.000000000000000000e+01
3.944763060847112229e+03 1.778279410038922848e+01
4.220029495232648515e+03 3.162277660168379256e+01
4.527161508964798486e+03 5.623413251903490817e+01
4.874076134999118949e+03 1.000000000000000000e+02
5.264347660797565368e+03 1.778279410038922776e+02
5.723522706698739967e+03 3.162277660168379612e+02
