# Temperature (K), Pressure (bars)
2.434730417613034206e+03 9.999999999999999547e-07
2.458517530311232349e+03 1.778279410038922901e-06
2.482304643009429583e+03 3.162277660168379191e-06
2.514983799018317313e+03 5.623413251903491208e-06
2.548985038740231175e+03 1.000000000000000082e-05
2.583363663515464850e+03 1.778279410038922901e-05
2.619462478838885545e+03 3.162277660168379530e-05
2.658703097077570419e+03 5.623413251903490700e-05
2.702546265657684216e+03 1.000000000000000048e-04
2.750387462285199490e+03 1.778279410038922698e-04
2.801736207656336319e+03 3.162277660168379394e-04
2.853999246005546865e+03 5.623413251903490971e-04
2.903640896521908417e+03 1.000000000000000021e-03
2.947470893008858638e+03 1.778279410038922752e-03
2.984416426493098697e+03 3.162277660168379394e-03
3.020588384098612096e+03 5.623413251903490971e-03
3.066731607393993727e+03 1.000000000000000021e-02
3.132100288948959587e+03 1.778279410038922925e-02
3.211583847127824356e+03 3.162277660168379134e-02
3.308021442224208840e+03 5.623413251903491145e-02
3.451960516868454761e+03 1.000000000000000056e-01
3.655736664052770266e+03 1.778279410038922925e-01
3.902671579612408550e+03 3.162277660168379412e-01
4.194285413932773736e+03 5.623413251903490728e-01
4.582401381993690848e+03 1.000000000000000000e+00
5.165690124736031066e+03 1.778279410038922759e+00
6.133369500642333151e+03 3.162277660168379523e+00
7.559058454392447857e+03 5.623413251903491172e+00
9.261475222853823652e+03 1.000000000000000000e+01
1.000000000000000000e+04 1.778279410038922848e+01
1.000000000000000000e+04 3.162277660168379256e+01
1.000000000000000000e+04 5.623413251903490817e+01
1.000000000000000000e+04 1.000000000000000000e+02
1.000000000000000000e+04 1.778279410038922776e+02
1.000000000000000000e+04 3.162277660168379612e+02
