# Temperature (K), Pressure (bars)
9.417197510706770345e+02 3.162277660168379394e-04
9.956427986618739396e+02 5.623413251903490971e-04
1.049565847984148377e+03 1.000000000000000021e-03
1.102243558147916701e+03 1.778279410038922752e-03
1.154121643808683530e+03 3.162277660168379394e-03
1.206377138150761766e+03 5.623413251903490971e-03
1.263133456292800929e+03 1.000000000000000021e-02
1.326342395706791194e+03 1.778279410038922925e-02
1.428820333380715738e+03 3.162277660168379134e-02
1.615523724786864477e+03 5.623413251903491145e-02
1.859023047556320080e+03 1.000000000000000056e-01
2.111171927931644404e+03 1.778279410038922925e-01
2.353274151296555374e+03 3.162277660168379412e-01
2.578771236586171199e+03 5.623413251903490728e-01
2.792365837772413670e+03 1.000000000000000000e+00
3.000721169799005565e+03 1.778279410038922759e+00
3.210093121565903402e+03 3.162277660168379523e+00
3.426419904667006449e+03 5.623413251903491172e+00
3.655282734285145580e+03 1.000000000000000000e+01
3.902148817600877464e+03 1.778279410038922848e+01
4.174978914330256885e+03 3.162277660168379256e+01
4.478623332456057142e+03 5.623413251903490817e+01
4.820684803579019899e+03 1.000000000000000000e+02
5.204631209913498424e+03 1.778279410038922776e+02
5.654366727775115578e+03 3.162277660168379612e+02
