# Temperature (K), Pressure (bars)
9.825604172939524688e+02 1.000000000000000021e-03
1.027676227107013801e+03 1.778279410038922752e-03
1.072792037914685579e+03 3.162277660168379394e-03
1.118414381536999599e+03 5.623413251903490971e-03
1.164704151990840046e+03 1.000000000000000021e-02
1.213290759469533668e+03 1.778279410038922925e-02
1.265839256298122109e+03 3.162277660168379134e-02
1.323374933264670290e+03 5.623413251903491145e-02
1.398508182251286826e+03 1.000000000000000056e-01
1.519634717585843418e+03 1.778279410038922925e-01
1.693852922153077088e+03 3.162277660168379412e-01
1.893238984635856241e+03 5.623413251903490728e-01
2.121068015435548205e+03 1.000000000000000000e+00
2.390969604809547491e+03 1.778279410038922759e+00
2.663507699840541591e+03 3.162277660168379523e+00
2.917996612108489444e+03 5.623413251903491172e+00
3.168546591097664987e+03 1.000000000000000000e+01
3.422824436548597077e+03 1.778279410038922848e+01
3.689616776842486161e+03 3.162277660168379256e+01
3.975138126582040059e+03 5.623413251903490817e+01
4.286306490766656680e+03 1.000000000000000000e+02
4.626319820798966248e+03 1.778279410038922776e+02
5.012639888182219693e+03 3.162277660168379612e+02
