# Temperature (K), Pressure (bars)
2.336807005326480066e+03 9.999999999999999547e-07
2.347744930869836026e+03 1.778279410038922901e-06
2.358682856413192440e+03 3.162277660168379191e-06
2.384902889342512481e+03 5.623413251903491208e-06
2.418966070181176292e+03 1.000000000000000082e-05
2.456203677028041511e+03 1.778279410038922901e-05
2.496785418739086708e+03 3.162277660168379530e-05
2.539678338533545229e+03 5.623413251903490700e-05
2.583914381231986226e+03 1.000000000000000048e-04
2.627788380976031021e+03 1.778279410038922698e-04
2.668162650154597486e+03 3.162277660168379394e-04
2.701141826665236749e+03 5.623413251903490971e-04
2.727215674135657991e+03 1.000000000000000021e-03
2.753811383807529182e+03 1.778279410038922752e-03
2.792180000798270157e+03 3.162277660168379394e-03
2.846873296098214723e+03 5.623413251903490971e-03
2.916845897212038835e+03 1.000000000000000021e-02
2.991325582597918583e+03 1.778279410038922925e-02
3.076578423506089621e+03 3.162277660168379134e-02
3.203988081973884164e+03 5.623413251903491145e-02
3.373503736711162674e+03 1.000000000000000056e-01
3.564503724786022303e+03 1.778279410038922925e-01
3.789462640853722860e+03 3.162277660168379412e-01
4.054405707757597611e+03 5.623413251903490728e-01
4.369890605763510393e+03 1.000000000000000000e+00
4.789603540185827114e+03 1.778279410038922759e+00
5.413047889744158965e+03 3.162277660168379523e+00
6.423890281471857634e+03 5.623413251903491172e+00
7.896540876075048800e+03 1.000000000000000000e+01
9.655620450044101744e+03 1.778279410038922848e+01
1.000000000000000000e+04 3.162277660168379256e+01
1.000000000000000000e+04 5.623413251903490817e+01
1.000000000000000000e+04 1.000000000000000000e+02
1.000000000000000000e+04 1.778279410038922776e+02
1.000000000000000000e+04 3.162277660168379612e+02
