# Temperature (K), Pressure (bars)
2.449421071614938228e+03 1.778279410038922901e-06
2.461041953415852731e+03 3.162277660168379191e-06
2.474266216703069404e+03 5.623413251903491208e-06
2.496169439100006002e+03 1.000000000000000082e-05
2.525629312525551541e+03 1.778279410038922901e-05
2.560529494416073248e+03 3.162277660168379530e-05
2.598342184297449421e+03 5.623413251903490700e-05
2.638855304541062196e+03 1.000000000000000048e-04
2.682945995415601828e+03 1.778279410038922698e-04
2.730321040238685782e+03 3.162277660168379394e-04
2.781389725615408679e+03 5.623413251903490971e-04
2.836177053548654840e+03 1.000000000000000021e-03
2.892800192614938624e+03 1.778279410038922752e-03
2.948163305532196318e+03 3.162277660168379394e-03
2.998315089651100607e+03 5.623413251903490971e-03
3.040177848509447358e+03 1.000000000000000021e-02
3.073561267709675576e+03 1.778279410038922925e-02
3.109545405501944515e+03 3.162277660168379134e-02
3.155624000699534918e+03 5.623413251903491145e-02
3.230497175004247765e+03 1.000000000000000056e-01
3.364908500381975500e+03 1.778279410038922925e-01
3.543869246830566226e+03 3.162277660168379412e-01
3.749228580321385834e+03 5.623413251903490728e-01
3.991876706273365926e+03 1.000000000000000000e+00
4.284831782879167804e+03 1.778279410038922759e+00
4.612163479333328723e+03 3.162277660168379523e+00
5.023980885707736888e+03 5.623413251903491172e+00
5.577245049933892915e+03 1.000000000000000000e+01
6.388347675007425096e+03 1.778279410038922848e+01
7.628509423405659618e+03 3.162277660168379256e+01
9.326923271290183038e+03 5.623413251903490817e+01
1.138071560759993190e+04 1.000000000000000000e+02
1.385582691602409614e+04 1.778279410038922776e+02
1.680914726001392773e+04 3.162277660168379612e+02
