# Temperature (K), Pressure (bars)
1.038160200559081431e+03 9.999999999999999547e-07
1.039617488542904084e+03 1.778279410038922901e-06
1.041074776528837447e+03 3.162277660168379191e-06
1.047873439655168340e+03 5.623413251903491208e-06
1.060976061613301681e+03 1.000000000000000082e-05
1.080720959866881458e+03 1.778279410038922901e-05
1.107807488372307489e+03 3.162277660168379530e-05
1.140637395841418083e+03 5.623413251903490700e-05
1.178815996934471741e+03 1.000000000000000048e-04
1.222980100938935266e+03 1.778279410038922698e-04
1.271778320138512527e+03 3.162277660168379394e-04
1.324257119301533066e+03 5.623413251903490971e-04
1.381681305448817966e+03 1.000000000000000021e-03
1.445038523360458612e+03 1.778279410038922752e-03
1.516805826745395734e+03 3.162277660168379394e-03
1.597335764768926310e+03 5.623413251903490971e-03
1.694488222861202530e+03 1.000000000000000021e-02
1.814660581912495672e+03 1.778279410038922925e-02
1.961189055897757044e+03 3.162277660168379134e-02
2.145654863276317883e+03 5.623413251903491145e-02
2.346537788894473124e+03 1.000000000000000056e-01
2.537918825039203512e+03 1.778279410038922925e-01
2.722927781991409120e+03 3.162277660168379412e-01
2.907223662115242405e+03 5.623413251903490728e-01
3.095034618123762812e+03 1.000000000000000000e+00
3.289468957315283660e+03 1.778279410038922759e+00
3.493747350614166407e+03 3.162277660168379523e+00
3.711964393448554347e+03 5.623413251903491172e+00
3.948924847757000862e+03 1.000000000000000000e+01
4.210054786986009276e+03 1.778279410038922848e+01
4.501790155372909794e+03 3.162277660168379256e+01
4.832596240349817890e+03 5.623413251903490817e+01
5.217909849622596994e+03 1.000000000000000000e+02
5.668025332625054034e+03 1.778279410038922776e+02
6.203001427944587704e+03 3.162277660168379612e+02
