# Temperature (K), Pressure (bars)
1.883779551822551639e+03 9.999999999999999547e-07
1.928466153369919994e+03 1.778279410038922901e-06
1.973152754917633729e+03 3.162277660168379191e-06
2.024576381197736282e+03 5.623413251903491208e-06
2.077794468501216215e+03 1.000000000000000082e-05
2.126430561154591032e+03 1.778279410038922901e-05
2.168972836300951258e+03 3.162277660168379530e-05
2.205530302677644613e+03 5.623413251903490700e-05
2.237603763054891715e+03 1.000000000000000048e-04
2.267821368912876096e+03 1.778279410038922698e-04
2.298618158335055341e+03 3.162277660168379394e-04
2.332027317663623762e+03 5.623413251903490971e-04
2.369904005620507633e+03 1.000000000000000021e-03
2.414012078989799647e+03 1.778279410038922752e-03
2.466429368329974750e+03 3.162277660168379394e-03
2.529212225738904635e+03 5.623413251903490971e-03
2.605532880599792406e+03 1.000000000000000021e-02
2.701270194338929741e+03 1.778279410038922925e-02
2.817822406058000524e+03 3.162277660168379134e-02
2.950848442265405993e+03 5.623413251903491145e-02
3.100033234002397876e+03 1.000000000000000056e-01
3.268721216362862833e+03 1.778279410038922925e-01
3.458822986278475128e+03 3.162277660168379412e-01
3.671154144185615223e+03 5.623413251903490728e-01
3.907892382949455623e+03 1.000000000000000000e+00
4.175537580141795843e+03 1.778279410038922759e+00
4.486578129777972208e+03 3.162277660168379523e+00
4.848894792305045485e+03 5.623413251903491172e+00
5.306687984883820718e+03 1.000000000000000000e+01
5.916508476954255457e+03 1.778279410038922848e+01
6.775134388843651323e+03 3.162277660168379256e+01
8.045482835839027757e+03 5.623413251903490817e+01
9.800746066044941472e+03 1.000000000000000000e+02
1.193084685212063414e+04 1.778279410038922776e+02
1.446653504335366415e+04 3.162277660168379612e+02
