# Temperature (K), Pressure (bars)
8.549750222512077471e+02 3.162277660168379394e-04
9.071864049750550976e+02 5.623413251903490971e-04
9.593977886992284994e+02 1.000000000000000021e-03
1.010462330666415937e+03 1.778279410038922752e-03
1.061278433054915013e+03 3.162277660168379394e-03
1.114975593061993095e+03 5.623413251903490971e-03
1.175043481527135555e+03 1.000000000000000021e-02
1.246410876640206197e+03 1.778279410038922925e-02
1.335570207162423230e+03 3.162277660168379134e-02
1.472291874813943195e+03 5.623413251903491145e-02
1.683553108589766452e+03 1.000000000000000056e-01
1.938589427108278414e+03 1.778279410038922925e-01
2.196484107777049303e+03 3.162277660168379412e-01
2.442162235004527702e+03 5.623413251903490728e-01
2.671752015466216108e+03 1.000000000000000000e+00
2.890300941423003223e+03 1.778279410038922759e+00
3.105354526961029478e+03 3.162277660168379523e+00
3.324164623393047350e+03 5.623413251903491172e+00
3.553014023764514604e+03 1.000000000000000000e+01
3.797665139463630567e+03 1.778279410038922848e+01
4.066324933840616723e+03 3.162277660168379256e+01
4.363299371673217138e+03 5.623413251903490817e+01
4.695650182225960634e+03 1.000000000000000000e+02
5.066981601005469201e+03 1.778279410038922776e+02
5.498707210371304427e+03 3.162277660168379612e+02
