# Temperature (K), Pressure (bars)
2.510819624583380573e+03 9.999999999999999547e-07
2.512030205942360681e+03 1.778279410038922901e-06
2.513240787301340788e+03 3.162277660168379191e-06
2.530866283653324899e+03 5.623413251903491208e-06
2.560610052085139159e+03 1.000000000000000082e-05
2.592901822619938685e+03 1.778279410038922901e-05
2.626991873075023250e+03 3.162277660168379530e-05
2.663635556573447502e+03 5.623413251903490700e-05
2.702469722605083462e+03 1.000000000000000048e-04
2.743920680484456625e+03 1.778279410038922698e-04
2.788452885309392059e+03 3.162277660168379394e-04
2.835762728241654713e+03 5.623413251903490971e-04
2.883797170284057302e+03 1.000000000000000021e-03
2.928940331052155216e+03 1.778279410038922752e-03
2.967043325732671747e+03 3.162277660168379394e-03
2.996347927406206054e+03 5.623413251903490971e-03
3.024224325663602940e+03 1.000000000000000021e-02
3.062774357651555874e+03 1.778279410038922925e-02
3.123155294575765765e+03 3.162277660168379134e-02
3.201112413660136554e+03 5.623413251903491145e-02
3.308890178756315890e+03 1.000000000000000056e-01
3.475842039147171363e+03 1.778279410038922925e-01
3.685599806214238015e+03 3.162277660168379412e-01
3.916473008335331087e+03 5.623413251903490728e-01
4.194654379096498815e+03 1.000000000000000000e+00
4.523769458948647298e+03 1.778279410038922759e+00
4.954538412851392422e+03 3.162277660168379523e+00
5.574499675478130484e+03 5.623413251903491172e+00
6.552899501146333932e+03 1.000000000000000000e+01
8.005713568503692841e+03 1.778279410038922848e+01
9.800139756020200366e+03 3.162277660168379256e+01
1.000000000000000000e+04 5.623413251903490817e+01
1.000000000000000000e+04 1.000000000000000000e+02
1.000000000000000000e+04 1.778279410038922776e+02
1.000000000000000000e+04 3.162277660168379612e+02
