# Temperature (K), Pressure (bars)
2.362695204081363499e+03 9.999999999999999547e-07
2.385447364053103229e+03 1.778279410038922901e-06
2.408199524024843413e+03 3.162277660168379191e-06
2.438919907876941124e+03 5.623413251903491208e-06
2.473774317426371908e+03 1.000000000000000082e-05
2.510929542324161048e+03 1.778279410038922901e-05
2.551943935559976580e+03 3.162277660168379530e-05
2.596471721179355882e+03 5.623413251903490700e-05
2.644655425211785314e+03 1.000000000000000048e-04
2.696055414625976482e+03 1.778279410038922698e-04
2.749467967310190943e+03 3.162277660168379394e-04
2.803318177109000317e+03 5.623413251903490971e-04
2.854467122577440023e+03 1.000000000000000021e-03
2.899824595854968265e+03 1.778279410038922752e-03
2.938512837479976042e+03 3.162277660168379394e-03
2.976671018035416637e+03 5.623413251903490971e-03
3.023365217997647505e+03 1.000000000000000021e-02
3.087200630897664269e+03 1.778279410038922925e-02
3.159860929337136440e+03 3.162277660168379134e-02
3.250014830549908311e+03 5.623413251903491145e-02
3.397023592166691287e+03 1.000000000000000056e-01
3.598181826384281521e+03 1.778279410038922925e-01
3.854986611888832613e+03 3.162277660168379412e-01
4.126948969465573100e+03 5.623413251903490728e-01
4.475740863259432444e+03 1.000000000000000000e+00
4.968109589379359022e+03 1.778279410038922759e+00
5.755633082986540103e+03 3.162277660168379523e+00
7.006614583260570726e+03 5.623413251903491172e+00
8.638560729750784958e+03 1.000000000000000000e+01
1.000000000000000000e+04 1.778279410038922848e+01
1.000000000000000000e+04 3.162277660168379256e+01
1.000000000000000000e+04 5.623413251903490817e+01
1.000000000000000000e+04 1.000000000000000000e+02
1.000000000000000000e+04 1.778279410038922776e+02
1.000000000000000000e+04 3.162277660168379612e+02
