# Temperature (K), Pressure (bars)
1.695913599912084010e+03 9.999999999999999547e-07
1.695949293845396824e+03 1.778279410038922901e-06
1.695984987810652001e+03 3.162277660168379191e-06
1.702186719176439283e+03 5.623413251903491208e-06
1.715065569525827868e+03 1.000000000000000082e-05
1.733553275478224805e+03 1.778279410038922901e-05
1.756434079936954504e+03 3.162277660168379530e-05
1.784059736897480889e+03 5.623413251903490700e-05
1.818540694804790292e+03 1.000000000000000048e-04
1.857855606979670256e+03 1.778279410038922698e-04
1.900274491826720350e+03 3.162277660168379394e-04
1.946345588661459260e+03 5.623413251903490971e-04
1.995976369297483416e+03 1.000000000000000021e-03
2.049993298160086397e+03 1.778279410038922752e-03
2.108017750092400092e+03 3.162277660168379394e-03
2.172430055634551536e+03 5.623413251903490971e-03
2.242817723969395956e+03 1.000000000000000021e-02
2.331270381130242640e+03 1.778279410038922925e-02
2.455857662999100285e+03 3.162277660168379134e-02
2.598749634338660599e+03 5.623413251903491145e-02
2.743957451364380177e+03 1.000000000000000056e-01
2.896721972609584554e+03 1.778279410038922925e-01
3.059682597193114816e+03 3.162277660168379412e-01
3.235121308604967453e+03 5.623413251903490728e-01
3.424327561319241795e+03 1.000000000000000000e+00
3.628224590914695909e+03 1.778279410038922759e+00
3.849200627551845173e+03 3.162277660168379523e+00
4.091820129489305145e+03 5.623413251903491172e+00
4.362469292960620805e+03 1.000000000000000000e+01
4.669541692109667565e+03 1.778279410038922848e+01
5.026710089152408727e+03 3.162277660168379256e+01
5.448632633379154868e+03 5.623413251903490817e+01
5.958233586775926597e+03 1.000000000000000000e+02
6.591102094130159458e+03 1.778279410038922776e+02
7.404632375610444797e+03 3.162277660168379612e+02
