# Temperature (K), Pressure (bars)
2.118081225113417076e+03 9.999999999999999547e-07
2.133474066659575783e+03 1.778279410038922901e-06
2.148866908209842222e+03 3.162277660168379191e-06
2.163683688905644431e+03 5.623413251903491208e-06
2.177011821792882984e+03 1.000000000000000082e-05
2.190063534603334119e+03 1.778279410038922901e-05
2.205403247469669168e+03 3.162277660168379530e-05
2.224201489084502100e+03 5.623413251903490700e-05
2.245904694124345042e+03 1.000000000000000048e-04
2.269242394006903851e+03 1.778279410038922698e-04
2.293377348330764107e+03 3.162277660168379394e-04
2.318545486100457765e+03 5.623413251903490971e-04
2.345468148383515654e+03 1.000000000000000021e-03
2.375773525261607574e+03 1.778279410038922752e-03
2.410483678292015611e+03 3.162277660168379394e-03
2.452268162246697102e+03 5.623413251903490971e-03
2.500300822034912926e+03 1.000000000000000021e-02
2.564225032357805503e+03 1.778279410038922925e-02
2.663688002241393406e+03 3.162277660168379134e-02
2.789534618254437191e+03 5.623413251903491145e-02
2.926851245960539472e+03 1.000000000000000056e-01
3.077421338134062353e+03 1.778279410038922925e-01
3.243935095869172528e+03 3.162277660168379412e-01
3.428434014468624810e+03 5.623413251903490728e-01
3.631647613488769821e+03 1.000000000000000000e+00
3.854659780305215463e+03 1.778279410038922759e+00
4.101235510578578214e+03 3.162277660168379523e+00
4.378447020691542093e+03 5.623413251903491172e+00
4.696768815662617271e+03 1.000000000000000000e+01
5.069989548799317163e+03 1.778279410038922848e+01
5.523856280148408587e+03 3.162277660168379256e+01
6.096616368070022872e+03 5.623413251903490817e+01
6.854262259978409020e+03 1.000000000000000000e+02
7.906647795306551416e+03 1.778279410038922776e+02
9.388563199462041666e+03 3.162277660168379612e+02
