# Temperature (K), Pressure (bars)
8.791286135353736881e+02 1.000000000000000082e-05
9.222508773266869184e+02 1.778279410038922901e-05
9.653731473246567703e+02 3.162277660168379530e-05
1.018524965124063328e+03 5.623413251903490700e-05
1.083248846032809524e+03 1.000000000000000048e-04
1.166011655811885248e+03 1.778279410038922698e-04
1.274256113210836475e+03 3.162277660168379394e-04
1.431275818610246006e+03 5.623413251903490971e-04
1.623945353451319988e+03 1.000000000000000021e-03
1.765695471702545092e+03 1.778279410038922752e-03
1.837968283638228968e+03 3.162277660168379394e-03
1.887920311993791756e+03 5.623413251903490971e-03
1.934449638994899487e+03 1.000000000000000021e-02
1.982854255250306096e+03 1.778279410038922925e-02
2.037914614777384031e+03 3.162277660168379134e-02
2.103701786351941792e+03 5.623413251903491145e-02
2.184933761056337062e+03 1.000000000000000056e-01
2.286812109390433761e+03 1.778279410038922925e-01
2.433715825400964604e+03 3.162277660168379412e-01
2.633861780089077001e+03 5.623413251903490728e-01
2.843803307699721699e+03 1.000000000000000000e+00
3.045884084566124784e+03 1.778279410038922759e+00
3.254000529160791757e+03 3.162277660168379523e+00
3.472084325075389188e+03 5.623413251903491172e+00
3.703781819086821997e+03 1.000000000000000000e+01
3.953948499543693742e+03 1.778279410038922848e+01
4.230025596820236387e+03 3.162277660168379256e+01
4.538125182706749001e+03 5.623413251903490817e+01
4.886188058836066375e+03 1.000000000000000000e+02
5.278193690205449457e+03 1.778279410038922776e+02
5.738367955250524574e+03 3.162277660168379612e+02
