# Temperature (K), Pressure (bars)
2.436627610031945551e+03 9.999999999999999547e-07
2.459567406884956199e+03 1.778279410038922901e-06
2.482507203737966393e+03 3.162277660168379191e-06
2.508767957316842967e+03 5.623413251903491208e-06
2.536395772092584139e+03 1.000000000000000082e-05
2.563305032190966813e+03 1.778279410038922901e-05
2.589961710895883243e+03 3.162277660168379530e-05
2.616234116724197065e+03 5.623413251903490700e-05
2.641300200300574488e+03 1.000000000000000048e-04
2.663694018908153339e+03 1.778279410038922698e-04
2.680784275318085747e+03 3.162277660168379394e-04
2.690630652694203491e+03 5.623413251903490971e-04
2.697500260437351699e+03 1.000000000000000021e-03
2.712849903827080198e+03 1.778279410038922752e-03
2.746265955301078975e+03 3.162277660168379394e-03
2.798996092126006261e+03 5.623413251903490971e-03
2.869786023275895786e+03 1.000000000000000021e-02
2.958026961931842379e+03 1.778279410038922925e-02
3.069296006092239622e+03 3.162277660168379134e-02
3.210179864202937097e+03 5.623413251903491145e-02
3.375200157936667892e+03 1.000000000000000056e-01
3.565463073275012448e+03 1.778279410038922925e-01
3.782392065130697574e+03 3.162277660168379412e-01
4.044242909977391719e+03 5.623413251903490728e-01
4.352472662011848115e+03 1.000000000000000000e+00
4.758321056857170333e+03 1.778279410038922759e+00
5.351312653711559506e+03 3.162277660168379523e+00
6.295911977553721954e+03 5.623413251903491172e+00
7.715257454265304659e+03 1.000000000000000000e+01
9.458317598629168060e+03 1.778279410038922848e+01
1.000000000000000000e+04 3.162277660168379256e+01
1.000000000000000000e+04 5.623413251903490817e+01
1.000000000000000000e+04 1.000000000000000000e+02
1.000000000000000000e+04 1.778279410038922776e+02
1.000000000000000000e+04 3.162277660168379612e+02
