# Temperature (K), Pressure (bars)
1.886866034941074759e+03 9.999999999999999547e-07
1.889787536805639320e+03 1.778279410038922901e-06
1.892709038670752989e+03 3.162277660168379191e-06
1.900352597280636019e+03 5.623413251903491208e-06
1.913854231282363344e+03 1.000000000000000082e-05
1.932497328609334545e+03 1.778279410038922901e-05
1.956327081543364329e+03 3.162277660168379530e-05
1.986665830427783703e+03 5.623413251903490700e-05
2.024578399048856227e+03 1.000000000000000048e-04
2.068803414662831528e+03 1.778279410038922698e-04
2.118158223240590814e+03 3.162277660168379394e-04
2.172348171865325185e+03 5.623413251903490971e-04
2.232569169311142559e+03 1.000000000000000021e-03
2.299440877597720373e+03 1.778279410038922752e-03
2.377803493949663789e+03 3.162277660168379394e-03
2.474793066171727787e+03 5.623413251903490971e-03
2.584750443203894065e+03 1.000000000000000021e-02
2.702225114975581164e+03 1.778279410038922925e-02
2.829402414268172379e+03 3.162277660168379134e-02
2.968013309905036294e+03 5.623413251903491145e-02
3.120506912907811056e+03 1.000000000000000056e-01
3.289985022680827569e+03 1.778279410038922925e-01
3.479764463105027971e+03 3.162277660168379412e-01
3.692664881381214400e+03 5.623413251903490728e-01
3.932025920302906343e+03 1.000000000000000000e+00
4.204967646023021189e+03 1.778279410038922759e+00
4.525284881901910012e+03 3.162277660168379523e+00
4.902033176505166011e+03 5.623413251903491172e+00
5.388923795464631439e+03 1.000000000000000000e+01
6.066228435376909147e+03 1.778279410038922848e+01
7.083076677022267177e+03 3.162277660168379256e+01
8.572040980017773109e+03 5.623413251903490817e+01
1.046775266551648201e+04 1.000000000000000000e+02
1.274554340368108387e+04 1.778279410038922776e+02
1.546219096127468219e+04 3.162277660168379612e+02
