# Temperature (K), Pressure (bars)
9.591628495027205190e+02 3.162277660168379394e-03
1.006530561387832904e+03 5.623413251903490971e-03
1.053898274384617253e+03 1.000000000000000021e-02
1.100082843982680970e+03 1.778279410038922925e-02
1.145925811926584402e+03 3.162277660168379134e-02
1.193123027031353558e+03 5.623413251903491145e-02
1.244181169613460270e+03 1.000000000000000056e-01
1.301406755666092522e+03 1.778279410038922925e-01
1.371891443619451366e+03 3.162277660168379412e-01
1.469467704065932821e+03 5.623413251903490728e-01
1.609115262842885386e+03 1.000000000000000000e+00
1.786764020448281599e+03 1.778279410038922759e+00
2.010789467418858294e+03 3.162277660168379523e+00
2.296547532453917484e+03 5.623413251903491172e+00
2.601175846596072461e+03 1.000000000000000000e+01
2.894108460682253281e+03 1.778279410038922848e+01
3.187144888147374331e+03 3.162277660168379256e+01
3.484489620104241112e+03 5.623413251903490817e+01
3.793962721704386695e+03 1.000000000000000000e+02
4.120851765037292353e+03 1.778279410038922776e+02
4.479454593949212722e+03 3.162277660168379612e+02
