# Temperature (K), Pressure (bars)
2.118671055383534622e+03 9.999999999999999547e-07
2.143046876916798738e+03 1.778279410038922901e-06
2.167422698450064217e+03 3.162277660168379191e-06
2.198380778359276519e+03 5.623413251903491208e-06
2.234282300054316693e+03 1.000000000000000082e-05
2.273427913026241185e+03 1.778279410038922901e-05
2.316485009024519968e+03 3.162277660168379530e-05
2.361797431214518838e+03 5.623413251903490700e-05
2.406590159030834911e+03 1.000000000000000048e-04
2.449110328592658789e+03 1.778279410038922698e-04
2.488201570303016979e+03 3.162277660168379394e-04
2.523367177799720594e+03 5.623413251903490971e-04
2.555733232972208043e+03 1.000000000000000021e-03
2.587843498271581666e+03 1.778279410038922752e-03
2.623548799063276874e+03 3.162277660168379394e-03
2.665933839576076025e+03 5.623413251903490971e-03
2.719738507462224334e+03 1.000000000000000021e-02
2.782635240087817238e+03 1.778279410038922925e-02
2.861088929336097863e+03 3.162277660168379134e-02
2.975646703429603804e+03 5.623413251903491145e-02
3.119734380533157491e+03 1.000000000000000056e-01
3.282562743127289650e+03 1.778279410038922925e-01
3.468947413441608660e+03 3.162277660168379412e-01
3.680812925530842222e+03 5.623413251903490728e-01
3.920246545909208180e+03 1.000000000000000000e+00
4.193122572543301430e+03 1.778279410038922759e+00
4.512174075192931014e+03 3.162277660168379523e+00
4.883767102910436734e+03 5.623413251903491172e+00
5.359529866919066990e+03 1.000000000000000000e+01
6.010151610235629960e+03 1.778279410038922848e+01
6.969872750449486375e+03 3.162277660168379256e+01
8.396811825727130781e+03 5.623413251903490817e+01
1.000000000000000000e+04 1.000000000000000000e+02
1.000000000000000000e+04 1.778279410038922776e+02
1.000000000000000000e+04 3.162277660168379612e+02
