# Temperature (K), Pressure (bars)
1.083723176809998222e+03 5.623413251903490700e-05
1.140152579739755993e+03 1.000000000000000048e-04
1.196581988041403520e+03 1.778279410038922698e-04
1.261987061428540073e+03 3.162277660168379394e-04
1.327259149915623766e+03 5.623413251903490971e-04
1.385406317448335358e+03 1.000000000000000021e-03
1.438573156522188810e+03 1.778279410038922752e-03
1.499885896698131774e+03 3.162277660168379394e-03
1.584339454642196415e+03 5.623413251903490971e-03
1.668017673247302582e+03 1.000000000000000021e-02
1.731810748038643169e+03 1.778279410038922925e-02
1.789266378203678187e+03 3.162277660168379134e-02
1.851488790595359433e+03 5.623413251903491145e-02
1.921693172332659060e+03 1.000000000000000056e-01
2.008054610506547306e+03 1.778279410038922925e-01
2.112445117366664817e+03 3.162277660168379412e-01
2.252025529301374263e+03 5.623413251903490728e-01
2.455565760689538820e+03 1.000000000000000000e+00
2.690988122583361474e+03 1.778279410038922759e+00
2.922297953291047634e+03 3.162277660168379523e+00
3.153591714793509254e+03 5.623413251903491172e+00
3.390330051776178152e+03 1.000000000000000000e+01
3.637932082350478595e+03 1.778279410038922848e+01
3.903789573498470872e+03 3.162277660168379256e+01
4.193796987171586807e+03 5.623413251903490817e+01
4.514860962427312188e+03 1.000000000000000000e+02
4.870224236527749781e+03 1.778279410038922776e+02
5.279245249984332986e+03 3.162277660168379612e+02
