# Temperature (K), Pressure (bars)
8.699611698287586705e+02 1.000000000000000021e-03
9.050846018732175935e+02 1.778279410038922752e-03
9.402080342426108928e+02 3.162277660168379394e-03
9.751328702609120000e+02 5.623413251903490971e-03
1.011727607195076530e+03 1.000000000000000021e-02
1.049837252813297710e+03 1.778279410038922925e-02
1.089186850195986835e+03 3.162277660168379134e-02
1.131302414703432078e+03 5.623413251903491145e-02
1.179284976779172212e+03 1.000000000000000056e-01
1.236324648907064102e+03 1.778279410038922925e-01
1.308267539759765214e+03 3.162277660168379412e-01
1.396666313004588574e+03 5.623413251903490728e-01
1.540079769005180651e+03 1.000000000000000000e+00
1.777788784165547895e+03 1.778279410038922759e+00
2.061901304015051664e+03 3.162277660168379523e+00
2.351105219169076463e+03 5.623413251903491172e+00
2.643762315907596985e+03 1.000000000000000000e+01
2.933441169544928925e+03 1.778279410038922848e+01
3.223742270690347596e+03 3.162277660168379256e+01
3.519223473144656055e+03 5.623413251903490817e+01
3.827825871286038819e+03 1.000000000000000000e+02
4.154707787638803893e+03 1.778279410038922776e+02
4.514321832151513263e+03 3.162277660168379612e+02
