# Temperature (K), Pressure (bars)
1.003504560524773751e+03 3.162277660168379530e-05
1.054607287292811861e+03 5.623413251903490700e-05
1.105710014731011825e+03 1.000000000000000048e-04
1.152332449398980771e+03 1.778279410038922698e-04
1.197781916152450094e+03 3.162277660168379394e-04
1.246092068065791636e+03 5.623413251903490971e-04
1.298775237351603664e+03 1.000000000000000021e-03
1.357488845557482591e+03 1.778279410038922752e-03
1.426377086282117489e+03 3.162277660168379394e-03
1.512489737275157040e+03 5.623413251903490971e-03
1.614693258717089975e+03 1.000000000000000021e-02
1.736189843164032254e+03 1.778279410038922925e-02
1.877571585247208077e+03 3.162277660168379134e-02
2.047096879103564333e+03 5.623413251903491145e-02
2.256614910370251891e+03 1.000000000000000056e-01
2.467964825401397320e+03 1.778279410038922925e-01
2.659772313754810966e+03 3.162277660168379412e-01
2.848187702320366043e+03 5.623413251903490728e-01
3.038712196625259367e+03 1.000000000000000000e+00
3.234685339995506638e+03 1.778279410038922759e+00
3.439297071059745122e+03 3.162277660168379523e+00
3.656603448035363272e+03 5.623413251903491172e+00
3.891390286547975393e+03 1.000000000000000000e+01
4.148957931855453353e+03 1.778279410038922848e+01
4.435464573383715106e+03 3.162277660168379256e+01
4.758913518392640071e+03 5.623413251903490817e+01
5.134126893488539281e+03 1.000000000000000000e+02
5.569820870487907996e+03 1.778279410038922776e+02
6.083790042903432550e+03 3.162277660168379612e+02
