# Temperature (K), Pressure (bars)
1.696762720121850180e+03 1.778279410038922901e-06
1.711018889076709229e+03 3.162277660168379191e-06
1.725275059756039809e+03 5.623413251903491208e-06
1.743193271756108061e+03 1.000000000000000082e-05
1.765908730222605755e+03 1.778279410038922901e-05
1.795916912185645742e+03 3.162277660168379530e-05
1.833871944822228443e+03 5.623413251903490700e-05
1.878260941026079763e+03 1.000000000000000048e-04
1.928766975721495101e+03 1.778279410038922698e-04
1.984503582937638384e+03 3.162277660168379394e-04
2.044529901974471386e+03 5.623413251903490971e-04
2.109524431196512069e+03 1.000000000000000021e-03
2.179264183380755640e+03 1.778279410038922752e-03
2.261683120330197653e+03 3.162277660168379394e-03
2.366525626029567775e+03 5.623413251903490971e-03
2.484554696867197890e+03 1.000000000000000021e-02
2.607822082965906702e+03 1.778279410038922925e-02
2.738925330497253526e+03 3.162277660168379134e-02
2.879188627867274135e+03 5.623413251903491145e-02
3.030304762313240190e+03 1.000000000000000056e-01
3.194514583449702513e+03 1.778279410038922925e-01
3.374438981110672557e+03 3.162277660168379412e-01
3.572486077904491140e+03 5.623413251903490728e-01
3.790981143538683682e+03 1.000000000000000000e+00
4.033933098825834350e+03 1.778279410038922759e+00
4.308981580950541684e+03 3.162277660168379523e+00
4.628406211515756695e+03 5.623413251903491172e+00
5.005287305429381377e+03 1.000000000000000000e+01
5.476849481592556913e+03 1.778279410038922848e+01
6.097810815933631602e+03 3.162277660168379256e+01
6.968477309355305806e+03 5.623413251903490817e+01
8.243884567793529641e+03 1.000000000000000000e+02
9.995940963301007287e+03 1.778279410038922776e+02
1.000000000000000000e+04 3.162277660168379612e+02
