# Temperature (K), Pressure (bars)
8.027318176253839965e+02 5.623413251903490971e-04
8.429390545795022263e+02 1.000000000000000021e-03
8.831462927766965549e+02 1.778279410038922752e-03
9.230575183456051036e+02 3.162277660168379394e-03
9.630966583359846709e+02 5.623413251903490971e-03
1.004206688708448951e+03 1.000000000000000021e-02
1.046651017155949376e+03 1.778279410038922925e-02
1.091422877143450705e+03 3.162277660168379134e-02
1.142203503396416181e+03 5.623413251903491145e-02
1.203171313595323682e+03 1.000000000000000056e-01
1.282157418657643348e+03 1.778279410038922925e-01
1.384243913362741296e+03 3.162277660168379412e-01
1.534521313362034334e+03 5.623413251903490728e-01
1.760532254486226066e+03 1.000000000000000000e+00
2.032271770660199081e+03 1.778279410038922759e+00
2.314919218649785307e+03 3.162277660168379523e+00
2.598021096441235386e+03 5.623413251903491172e+00
2.874657824970446654e+03 1.000000000000000000e+01
3.147421642509528283e+03 1.778279410038922848e+01
3.424548429243759074e+03 3.162277660168379256e+01
3.712745142358979592e+03 5.623413251903490817e+01
4.019620571222420040e+03 1.000000000000000000e+02
4.349560456999096459e+03 1.778279410038922776e+02
4.717630645138594446e+03 3.162277660168379612e+02
