# Temperature (K), Pressure (bars)
8.869559526646639824e+02 5.623413251903490700e-05
9.434583017507179648e+02 1.000000000000000048e-04
9.999606505758304138e+02 1.778279410038922698e-04
1.052834117102688424e+03 3.162277660168379394e-04
1.108292333114695339e+03 5.623413251903490971e-04
1.166994364985070661e+03 1.000000000000000021e-03
1.222000802819251021e+03 1.778279410038922752e-03
1.268437606942207594e+03 3.162277660168379394e-03
1.308023780510480037e+03 5.623413251903490971e-03
1.348372740280045946e+03 1.000000000000000021e-02
1.396052653903758255e+03 1.778279410038922925e-02
1.457573230987413353e+03 3.162277660168379134e-02
1.572472915993233528e+03 5.623413251903491145e-02
1.747277536217111901e+03 1.000000000000000056e-01
1.951324345864257566e+03 1.778279410038922925e-01
2.191247887022947907e+03 3.162277660168379412e-01
2.439034028379566280e+03 5.623413251903490728e-01
2.666302646891608219e+03 1.000000000000000000e+00
2.885617149043524023e+03 1.778279410038922759e+00
3.103475899519473842e+03 3.162277660168379523e+00
3.325248960319103389e+03 5.623413251903491172e+00
3.556396170905687541e+03 1.000000000000000000e+01
3.802692061101157378e+03 1.778279410038922848e+01
4.071900393277313015e+03 3.162277660168379256e+01
4.369336098914439390e+03 5.623413251903490817e+01
4.702157819756823301e+03 1.000000000000000000e+02
5.073429552719505409e+03 1.778279410038922776e+02
5.505059207505636550e+03 3.162277660168379612e+02
