# Temperature (K), Pressure (bars)
1.105915861990887606e+03 3.162277660168379530e-05
1.162929490153145480e+03 5.623413251903490700e-05
1.219943123744402328e+03 1.000000000000000048e-04
1.286654734208811988e+03 1.778279410038922698e-04
1.358413008907753465e+03 3.162277660168379394e-04
1.427847423130890547e+03 5.623413251903490971e-04
1.489143357739337944e+03 1.000000000000000021e-03
1.551858755719611963e+03 1.778279410038922752e-03
1.635119662074798725e+03 3.162277660168379394e-03
1.725775498336580313e+03 5.623413251903490971e-03
1.801951998082690125e+03 1.000000000000000021e-02
1.866058711725364219e+03 1.778279410038922925e-02
1.929636904817187769e+03 3.162277660168379134e-02
1.999461200315637143e+03 5.623413251903491145e-02
2.084591928662343435e+03 1.000000000000000056e-01
2.186702783198757970e+03 1.778279410038922925e-01
2.328774439160110887e+03 3.162277660168379412e-01
2.534316413033177014e+03 5.623413251903490728e-01
2.755493067765673004e+03 1.000000000000000000e+00
2.963334270741249384e+03 1.778279410038922759e+00
3.174142435403187392e+03 3.162277660168379523e+00
3.393188861236088542e+03 5.623413251903491172e+00
3.624369237547874945e+03 1.000000000000000000e+01
3.872372688798724994e+03 1.778279410038922848e+01
4.144316703128278277e+03 3.162277660168379256e+01
4.446139105038613707e+03 5.623413251903490817e+01
4.785429965681775684e+03 1.000000000000000000e+02
5.165526121803475689e+03 1.778279410038922776e+02
5.610005164670914382e+03 3.162277660168379612e+02
