# Temperature (K), Pressure (bars)
9.075222632643739189e+02 1.778279410038922901e-05
9.589048780774444367e+02 3.162277660168379530e-05
1.010287493298515187e+03 5.623413251903490700e-05
1.060054210647274886e+03 1.000000000000000048e-04
1.107748141794431831e+03 1.778279410038922698e-04
1.152156673854654628e+03 3.162277660168379394e-04
1.189945969932529806e+03 5.623413251903490971e-04
1.226335306352610360e+03 1.000000000000000021e-03
1.268868674262496825e+03 1.778279410038922752e-03
1.325703877363695938e+03 3.162277660168379394e-03
1.441509077732202968e+03 5.623413251903490971e-03
1.620261495191304448e+03 1.000000000000000021e-02
1.790863338240621715e+03 1.778279410038922925e-02
1.937044848812844975e+03 3.162277660168379134e-02
2.104855997427029251e+03 5.623413251903491145e-02
2.305872939511297773e+03 1.000000000000000056e-01
2.507344306359197162e+03 1.778279410038922925e-01
2.697002843909481726e+03 3.162277660168379412e-01
2.885403225680241121e+03 5.623413251903490728e-01
3.075856760614655286e+03 1.000000000000000000e+00
3.271027891006480786e+03 1.778279410038922759e+00
3.474896775467038424e+03 3.162277660168379523e+00
3.692246658671246678e+03 5.623413251903491172e+00
3.928051728107255713e+03 1.000000000000000000e+01
4.187675008140931823e+03 1.778279410038922848e+01
4.477392413441322788e+03 3.162277660168379256e+01
4.805437162961973627e+03 5.623413251903490817e+01
5.187043023768014791e+03 1.000000000000000000e+02
5.631585194330241393e+03 1.778279410038922776e+02
6.158081995300479321e+03 3.162277660168379612e+02
