# Temperature (K), Pressure (bars)
8.408696023707930181e+02 5.623413251903490971e-04
8.761980486670289565e+02 1.000000000000000021e-03
9.115264961204675274e+02 1.778279410038922752e-03
9.467701063533079378e+02 3.162277660168379394e-03
9.835000690690861802e+02 5.623413251903490971e-03
1.022052829028554697e+03 1.000000000000000021e-02
1.061589945108138181e+03 1.778279410038922925e-02
1.103456512250449578e+03 3.162277660168379134e-02
1.150211821500972064e+03 5.623413251903491145e-02
1.206058768673830855e+03 1.000000000000000056e-01
1.274559620309891670e+03 1.778279410038922925e-01
1.368787206491607549e+03 3.162277660168379412e-01
1.532183297506556755e+03 5.623413251903490728e-01
1.776488114812084632e+03 1.000000000000000000e+00
2.053768207757892469e+03 1.778279410038922759e+00
2.336320062674508790e+03 3.162277660168379523e+00
2.618569414253248397e+03 5.623413251903491172e+00
2.893804826077346206e+03 1.000000000000000000e+01
3.165118050942115588e+03 1.778279410038922848e+01
3.441386513898173689e+03 3.162277660168379256e+01
3.729192080409822665e+03 5.623413251903490817e+01
4.036057988752446363e+03 1.000000000000000000e+02
4.365989365432368686e+03 1.778279410038922776e+02
4.734635031496728516e+03 3.162277660168379612e+02
