# Temperature (K), Pressure (bars)
2.399222205205292084e+03 9.999999999999999547e-07
2.422271941351398709e+03 1.778279410038922901e-06
2.445321677497505789e+03 3.162277660168379191e-06
2.472265010935844657e+03 5.623413251903491208e-06
2.502194945600377650e+03 1.000000000000000082e-05
2.531155374936522549e+03 1.778279410038922901e-05
2.560732408946794294e+03 3.162277660168379530e-05
2.591461690475393425e+03 5.623413251903490700e-05
2.622436237329142386e+03 1.000000000000000048e-04
2.653047355040005641e+03 1.778279410038922698e-04
2.681163341470551131e+03 3.162277660168379394e-04
2.704412003630710387e+03 5.623413251903490971e-04
2.721564256240684244e+03 1.000000000000000021e-03
2.735915297356448718e+03 1.778279410038922752e-03
2.755236544611245336e+03 3.162277660168379394e-03
2.786354705630102217e+03 5.623413251903490971e-03
2.833404657339054211e+03 1.000000000000000021e-02
2.896906831978451009e+03 1.778279410038922925e-02
2.982163846618958814e+03 3.162277660168379134e-02
3.099515000364563548e+03 5.623413251903491145e-02
3.244931204265897577e+03 1.000000000000000056e-01
3.411517343841228467e+03 1.778279410038922925e-01
3.603413813531872620e+03 3.162277660168379412e-01
3.828728071269813881e+03 5.623413251903490728e-01
4.100761898698243385e+03 1.000000000000000000e+00
4.397158029807640560e+03 1.778279410038922759e+00
4.766432311379683597e+03 3.162277660168379523e+00
5.256729160463165499e+03 5.623413251903491172e+00
5.965572514510504334e+03 1.000000000000000000e+01
7.060375672027719702e+03 1.778279410038922848e+01
8.633561305779056056e+03 3.162277660168379256e+01
1.054877616460743957e+04 5.623413251903490817e+01
1.283508902660808781e+04 1.000000000000000000e+02
1.562658665177599323e+04 1.778279410038922776e+02
1.895650035388640390e+04 3.162277660168379612e+02
