# Temperature (K), Pressure (bars)
7.403945425632607567e+02 3.162277660168379394e-04
7.790352982104963075e+02 5.623413251903490971e-04
8.176760549670647151e+02 1.000000000000000021e-03
8.553009294729256453e+02 1.778279410038922752e-03
8.931981419193081138e+02 3.162277660168379394e-03
9.319826296760314790e+02 5.623413251903490971e-03
9.718715536183648283e+02 1.000000000000000021e-02
1.014439584760114258e+03 1.778279410038922925e-02
1.063102392241310554e+03 3.162277660168379134e-02
1.122058966294590618e+03 5.623413251903491145e-02
1.198769199630491585e+03 1.000000000000000056e-01
1.299004332810946153e+03 1.778279410038922925e-01
1.443035472830193385e+03 3.162277660168379412e-01
1.654508520263977061e+03 5.623413251903490728e-01
1.913435796994087013e+03 1.000000000000000000e+00
2.189413986570250927e+03 1.778279410038922759e+00
2.467961400427301669e+03 3.162277660168379523e+00
2.739478814431096453e+03 5.623413251903491172e+00
3.003887832026018714e+03 1.000000000000000000e+01
3.266945275476016832e+03 1.778279410038922848e+01
3.538224909032798223e+03 3.162277660168379256e+01
3.824071289733692993e+03 5.623413251903490817e+01
4.131644708004860149e+03 1.000000000000000000e+02
4.464634168412148938e+03 1.778279410038922776e+02
4.839274649277039316e+03 3.162277660168379612e+02
