# Temperature (K), Pressure (bars)
9.984689641498177934e+02 3.162277660168379394e-04
1.059349470279006937e+03 5.623413251903490971e-04
1.120229977731728013e+03 1.000000000000000021e-03
1.178694740333864502e+03 1.778279410038922752e-03
1.236915686987584877e+03 3.162277660168379394e-03
1.297963163331395208e+03 5.623413251903490971e-03
1.365253470383578588e+03 1.000000000000000021e-02
1.443343711119585578e+03 1.778279410038922925e-02
1.538220377462157330e+03 3.162277660168379134e-02
1.663110731973180918e+03 5.623413251903491145e-02
1.851648121787854961e+03 1.000000000000000056e-01
2.101897122542870420e+03 1.778279410038922925e-01
2.352469128747231935e+03 3.162277660168379412e-01
2.577310376955752872e+03 5.623413251903490728e-01
2.790018518426147239e+03 1.000000000000000000e+00
2.998148865746155934e+03 1.778279410038922759e+00
3.207818981232665465e+03 3.162277660168379523e+00
3.424434466772080214e+03 5.623413251903491172e+00
3.653263060536098692e+03 1.000000000000000000e+01
3.899718219700035206e+03 1.778279410038922848e+01
4.171606001226293301e+03 3.162277660168379256e+01
4.473932113750380267e+03 5.623413251903490817e+01
4.814169953099659324e+03 1.000000000000000000e+02
5.195791864107498441e+03 1.778279410038922776e+02
5.642413492835763464e+03 3.162277660168379612e+02
