# Temperature (K), Pressure (bars)
9.154154439658309457e+02 5.623413251903490971e-04
9.624099104971860470e+02 1.000000000000000021e-03
1.009404378651659840e+03 1.778279410038922752e-03
1.055314471372346816e+03 3.162277660168379394e-03
1.101893550816595507e+03 5.623413251903490971e-03
1.150021614362682612e+03 1.000000000000000021e-02
1.200169670171628013e+03 1.778279410038922925e-02
1.253324656667138470e+03 3.162277660168379134e-02
1.313230036363395357e+03 5.623413251903491145e-02
1.390307548465117634e+03 1.000000000000000056e-01
1.492171289751045151e+03 1.778279410038922925e-01
1.624760613659215096e+03 3.162277660168379412e-01
1.783368576310824437e+03 5.623413251903490728e-01
1.983410892119194841e+03 1.000000000000000000e+00
2.247034468910711439e+03 1.778279410038922759e+00
2.529425091166163838e+03 3.162277660168379523e+00
2.795911682020539502e+03 5.623413251903491172e+00
3.056152055968353579e+03 1.000000000000000000e+01
3.316616478361128884e+03 1.778279410038922848e+01
3.586233491618673270e+03 3.162277660168379256e+01
3.871710278059101711e+03 5.623413251903490817e+01
4.180182958176261309e+03 1.000000000000000000e+02
4.515093003906787089e+03 1.778279410038922776e+02
4.893148352285363217e+03 3.162277660168379612e+02
