# Temperature (K), Pressure (bars)
9.629710304964831948e+02 1.000000000000000021e-03
9.962657965424317581e+02 1.778279410038922752e-03
1.029560561820773955e+03 3.162277660168379394e-03
1.055448855302767242e+03 5.623413251903490971e-03
1.075169786114016688e+03 1.000000000000000021e-02
1.093257289190184110e+03 1.778279410038922925e-02
1.113796173562808917e+03 3.162277660168379134e-02
1.140670305284144206e+03 5.623413251903491145e-02
1.176170479177656034e+03 1.000000000000000056e-01
1.221706398375044728e+03 1.778279410038922925e-01
1.279573175033287498e+03 3.162277660168379412e-01
1.353379757267061450e+03 5.623413251903490728e-01
1.448517127099696609e+03 1.000000000000000000e+00
1.573112332931217679e+03 1.778279410038922759e+00
1.727276294940152184e+03 3.162277660168379523e+00
1.936853037181176660e+03 5.623413251903491172e+00
2.224008580131434883e+03 1.000000000000000000e+01
2.539610929288538500e+03 1.778279410038922848e+01
2.853027048240357544e+03 3.162277660168379256e+01
3.167918423276293197e+03 5.623413251903490817e+01
3.487998750904288045e+03 1.000000000000000000e+02
3.817993835588708862e+03 1.778279410038922776e+02
4.171115996018869737e+03 3.162277660168379612e+02
