# Temperature (K), Pressure (bars)
2.300185740271295344e+03 5.623413251903491208e-06
2.308655218425369640e+03 1.000000000000000082e-05
2.317124708992038904e+03 1.778279410038922901e-05
2.336193013869862625e+03 3.162277660168379530e-05
2.362648557587923278e+03 5.623413251903490700e-05
2.393737423947063689e+03 1.000000000000000048e-04
2.432036988574100178e+03 1.778279410038922698e-04
2.480089853485542790e+03 3.162277660168379394e-04
2.538035595341546468e+03 5.623413251903490971e-04
2.605909808183902442e+03 1.000000000000000021e-03
2.683418296298965743e+03 1.778279410038922752e-03
2.768325816293977368e+03 3.162277660168379394e-03
2.856767046421593022e+03 5.623413251903490971e-03
2.941644856015669120e+03 1.000000000000000021e-02
3.016922832628949436e+03 1.778279410038922925e-02
3.079723414078248425e+03 3.162277660168379134e-02
3.137270103173669668e+03 5.623413251903491145e-02
3.193479416838987163e+03 1.000000000000000056e-01
3.281008957829023529e+03 1.778279410038922925e-01
3.441530494551419906e+03 3.162277660168379412e-01
3.642842376730287015e+03 5.623413251903490728e-01
3.862491657925715117e+03 1.000000000000000000e+00
4.118814628271064976e+03 1.778279410038922759e+00
4.421425713746258225e+03 3.162277660168379523e+00
4.763371845677415877e+03 5.623413251903491172e+00
5.188263590775113698e+03 1.000000000000000000e+01
5.746013461953166370e+03 1.778279410038922848e+01
6.534362530646906635e+03 3.162277660168379256e+01
7.708219691009925555e+03 5.623413251903490817e+01
9.358731574836192522e+03 1.000000000000000000e+02
1.000000000000000000e+04 1.778279410038922776e+02
1.000000000000000000e+04 3.162277660168379612e+02
