# Temperature (K), Pressure (bars)
8.962684304427752977e+02 3.162277660168379394e-04
9.460860040297442310e+02 5.623413251903490971e-04
9.959035791686427501e+02 1.000000000000000021e-03
1.044939325368451591e+03 1.778279410038922752e-03
1.094125732017867222e+03 3.162277660168379394e-03
1.144429206428009138e+03 5.623413251903490971e-03
1.196704864729877954e+03 1.000000000000000021e-02
1.253334124335056003e+03 1.778279410038922925e-02
1.317982429019762776e+03 3.162277660168379134e-02
1.397589621051274662e+03 5.623413251903491145e-02
1.498257848455388967e+03 1.000000000000000056e-01
1.651059694990176013e+03 1.778279410038922925e-01
1.882041832262036905e+03 3.162277660168379412e-01
2.148059141509207620e+03 5.623413251903490728e-01
2.407112971504817324e+03 1.000000000000000000e+00
2.654783018562878169e+03 1.778279410038922759e+00
2.892285179497853278e+03 3.162277660168379523e+00
3.125865648497736402e+03 5.623413251903491172e+00
3.362570492119344635e+03 1.000000000000000000e+01
3.609256316082569356e+03 1.778279410038922848e+01
3.874327270791012779e+03 3.162277660168379256e+01
4.162914454751364246e+03 5.623413251903490817e+01
4.481724520896749709e+03 1.000000000000000000e+02
4.833904109605355188e+03 1.778279410038922776e+02
5.238366986750100295e+03 3.162277660168379612e+02
