# Temperature (K), Pressure (bars)
8.178962969318906744e+02 5.623413251903491208e-06
8.670047398967243453e+02 1.000000000000000082e-05
9.161131869033101793e+02 1.778279410038922901e-05
9.704640418362369019e+02 3.162277660168379530e-05
1.029314273578748043e+03 5.623413251903490700e-05
1.089066446336517629e+03 1.000000000000000048e-04
1.160430380682012810e+03 1.778279410038922698e-04
1.263269238290039311e+03 3.162277660168379394e-04
1.409653572687194583e+03 5.623413251903490971e-04
1.579603498537612268e+03 1.000000000000000021e-03
1.707153645140230083e+03 1.778279410038922752e-03
1.777243469052342107e+03 3.162277660168379394e-03
1.833575992019405248e+03 5.623413251903490971e-03
1.893871677277469416e+03 1.000000000000000021e-02
1.957941282721391190e+03 1.778279410038922925e-02
2.032453727719432209e+03 3.162277660168379134e-02
2.119624392599738258e+03 5.623413251903491145e-02
2.234682020407070013e+03 1.000000000000000056e-01
2.399625660528034587e+03 1.778279410038922925e-01
2.590131740533871380e+03 3.162277660168379412e-01
2.779890464201633677e+03 5.623413251903490728e-01
2.972071865693897053e+03 1.000000000000000000e+00
3.169960028973628141e+03 1.778279410038922759e+00
3.375935858460509280e+03 3.162277660168379523e+00
3.593288078405170836e+03 5.623413251903491172e+00
3.826578854427926217e+03 1.000000000000000000e+01
4.081215365690815361e+03 1.778279410038922848e+01
4.365144571723823901e+03 3.162277660168379256e+01
4.684674238377094298e+03 5.623413251903490817e+01
5.048683381558272231e+03 1.000000000000000000e+02
5.461223074285948314e+03 1.778279410038922776e+02
5.951224226998812810e+03 3.162277660168379612e+02
