# Temperature (K), Pressure (bars)
1.070983224698514050e+03 3.162277660168379394e-04
1.119429789196150296e+03 5.623413251903490971e-04
1.167876355886196279e+03 1.000000000000000021e-03
1.218529248287758719e+03 1.778279410038922752e-03
1.270916724823383902e+03 3.162277660168379394e-03
1.324745775104232280e+03 5.623413251903490971e-03
1.381038445319066795e+03 1.000000000000000021e-02
1.441581647984741039e+03 1.778279410038922925e-02
1.510537828831787920e+03 3.162277660168379134e-02
1.593072666029492211e+03 5.623413251903491145e-02
1.698324438763469743e+03 1.000000000000000056e-01
1.837804786585288184e+03 1.778279410038922925e-01
2.003363884930165568e+03 3.162277660168379412e-01
2.204324716337388963e+03 5.623413251903490728e-01
2.451052635600726262e+03 1.000000000000000000e+00
2.700322688495505190e+03 1.778279410038922759e+00
2.932203696859993670e+03 3.162277660168379523e+00
3.162606335754065640e+03 5.623413251903491172e+00
3.398404589348865102e+03 1.000000000000000000e+01
3.645375663633733438e+03 1.778279410038922848e+01
3.911078163217876408e+03 3.162277660168379256e+01
4.201128317527286526e+03 5.623413251903490817e+01
4.522400174699376294e+03 1.000000000000000000e+02
4.877956041904556514e+03 1.778279410038922776e+02
5.287548102806408679e+03 3.162277660168379612e+02
