# Temperature (K), Pressure (bars)
9.277896927544691152e+02 3.162277660168379394e-04
9.774372599266392854e+02 5.623413251903490971e-04
1.027084829074051186e+03 1.000000000000000021e-03
1.076649391474487402e+03 1.778279410038922752e-03
1.126420878338095463e+03 3.162277660168379394e-03
1.177028412570894034e+03 5.623413251903490971e-03
1.229810877608560986e+03 1.000000000000000021e-02
1.287859594138054035e+03 1.778279410038922925e-02
1.355783498631566999e+03 3.162277660168379134e-02
1.447324763294612012e+03 5.623413251903491145e-02
1.599208574866154777e+03 1.000000000000000056e-01
1.828901944069824594e+03 1.778279410038922925e-01
2.095297744917827913e+03 3.162277660168379412e-01
2.353412651655285572e+03 5.623413251903490728e-01
2.593894952780181484e+03 1.000000000000000000e+00
2.822034006113311079e+03 1.778279410038922759e+00
3.044407324940033050e+03 3.162277660168379523e+00
3.267979105523516409e+03 5.623413251903491172e+00
3.499324873492419556e+03 1.000000000000000000e+01
3.744613232838130898e+03 1.778279410038922848e+01
4.011934436499030653e+03 3.162277660168379256e+01
4.306063159986789287e+03 5.623413251903490817e+01
4.633939154148877606e+03 1.000000000000000000e+02
4.999054635317604152e+03 1.778279410038922776e+02
5.421605524581053032e+03 3.162277660168379612e+02
