# Temperature (K), Pressure (bars)
1.246091864866159540e+03 9.999999999999999547e-07
1.282909577313453610e+03 1.778279410038922901e-06
1.319727289760747681e+03 3.162277660168379191e-06
1.359657504881350405e+03 5.623413251903491208e-06
1.405808048367108086e+03 1.000000000000000082e-05
1.458011813754567584e+03 1.778279410038922901e-05
1.517524489508194165e+03 3.162277660168379530e-05
1.587837924805931380e+03 5.623413251903490700e-05
1.664760089182186221e+03 1.000000000000000048e-04
1.743340322672010643e+03 1.778279410038922698e-04
1.826632379995691508e+03 3.162277660168379394e-04
1.917039429803099665e+03 5.623413251903490971e-04
2.021736944403957295e+03 1.000000000000000021e-03
2.148755186121791212e+03 1.778279410038922752e-03
2.288701079914018464e+03 3.162277660168379394e-03
2.431168258261320261e+03 5.623413251903490971e-03
2.576376357243308121e+03 1.000000000000000021e-02
2.726384451217361402e+03 1.778279410038922925e-02
2.883697592793298099e+03 3.162277660168379134e-02
3.051308657188003053e+03 5.623413251903491145e-02
3.232506685872136586e+03 1.000000000000000056e-01
3.430309950617653158e+03 1.778279410038922925e-01
3.648127817500957462e+03 3.162277660168379412e-01
3.892535753209247559e+03 5.623413251903490728e-01
4.177288409414468333e+03 1.000000000000000000e+00
4.500024645952243191e+03 1.778279410038922759e+00
4.918172813822323405e+03 3.162277660168379523e+00
5.509024994962705932e+03 5.623413251903491172e+00
6.412540743684819972e+03 1.000000000000000000e+01
7.782562534529636650e+03 1.778279410038922848e+01
9.543863794372129632e+03 3.162277660168379256e+01
1.160359088794632407e+04 5.623413251903490817e+01
1.411770328883430557e+04 1.000000000000000000e+02
1.718649216797743429e+04 1.778279410038922776e+02
2.084734287679430781e+04 3.162277660168379612e+02
