# Temperature (K), Pressure (bars)
1.570254168961037976e+03 9.999999999999999547e-07
1.612831070663948140e+03 1.778279410038922901e-06
1.655407972374815927e+03 3.162277660168379191e-06
1.701734817411298536e+03 5.623413251903491208e-06
1.749288468871109671e+03 1.000000000000000082e-05
1.797156262385458149e+03 1.778279410038922901e-05
1.844361662806595177e+03 3.162277660168379530e-05
1.890091152227376369e+03 5.623413251903490700e-05
1.936200839597851427e+03 1.000000000000000048e-04
1.984615027206050627e+03 1.778279410038922698e-04
2.036760707721123708e+03 3.162277660168379394e-04
2.093760297350259862e+03 5.623413251903490971e-04
2.156752346653622226e+03 1.000000000000000021e-03
2.229059612435344206e+03 1.778279410038922752e-03
2.317467953491533990e+03 3.162277660168379394e-03
2.423240432227857582e+03 5.623413251903490971e-03
2.540282274941250762e+03 1.000000000000000021e-02
2.665913324010049109e+03 1.778279410038922925e-02
2.801663723949808173e+03 3.162277660168379134e-02
2.949593329610119326e+03 5.623413251903491145e-02
3.112141638233753383e+03 1.000000000000000056e-01
3.291455337503084593e+03 1.778279410038922925e-01
3.488430892864653742e+03 3.162277660168379412e-01
3.704689077120745424e+03 5.623413251903490728e-01
3.944717511460376954e+03 1.000000000000000000e+00
4.217556397544550236e+03 1.778279410038922759e+00
4.534470563634765313e+03 3.162277660168379523e+00
4.913529164335349378e+03 5.623413251903491172e+00
5.402836333297083911e+03 1.000000000000000000e+01
6.079758510382622262e+03 1.778279410038922848e+01
7.089228994355947179e+03 3.162277660168379256e+01
8.577203165169737986e+03 5.623413251903490817e+01
1.047329267553739010e+04 1.000000000000000000e+02
1.275132061686362613e+04 1.778279410038922776e+02
1.546792955307631564e+04 3.162277660168379612e+02
