# Temperature (K), Pressure (bars)
2.055525412171336939e+03 1.778279410038922901e-06
2.058445369195293097e+03 3.162277660168379191e-06
2.061365327415514457e+03 5.623413251903491208e-06
2.067198835855621383e+03 1.000000000000000082e-05
2.079161060080547941e+03 1.778279410038922901e-05
2.099168705365412734e+03 3.162277660168379530e-05
2.127720907492664992e+03 5.623413251903490700e-05
2.164368806191407657e+03 1.000000000000000048e-04
2.206239031622519178e+03 1.778279410038922698e-04
2.249859283968721684e+03 3.162277660168379394e-04
2.293204048438461541e+03 5.623413251903490971e-04
2.334523652549776671e+03 1.000000000000000021e-03
2.371949677861171040e+03 1.778279410038922752e-03
2.404870045830881281e+03 3.162277660168379394e-03
2.434305203221713782e+03 5.623413251903490971e-03
2.462910373091563088e+03 1.000000000000000021e-02
2.494158743022589988e+03 1.778279410038922925e-02
2.534518381306341780e+03 3.162277660168379134e-02
2.587752628667733006e+03 5.623413251903491145e-02
2.676075829176011212e+03 1.000000000000000056e-01
2.817646058613565856e+03 1.778279410038922925e-01
2.980713114192106332e+03 3.162277660168379412e-01
3.147805554040815423e+03 5.623413251903490728e-01
3.329482825597815463e+03 1.000000000000000000e+00
3.527512058528041052e+03 1.778279410038922759e+00
3.742870922196513675e+03 3.162277660168379523e+00
3.978070511776990770e+03 5.623413251903491172e+00
4.237899292765692735e+03 1.000000000000000000e+01
4.529252868574067179e+03 1.778279410038922848e+01
4.861524194732914111e+03 3.162277660168379256e+01
5.250111970094004391e+03 5.623413251903490817e+01
5.710585249632389605e+03 1.000000000000000000e+02
6.268505898227234866e+03 1.778279410038922776e+02
6.963114208068320295e+03 3.162277660168379612e+02
