# Temperature (K), Pressure (bars)
1.085203021375265507e+03 3.162277660168379394e-04
1.122109097267044035e+03 5.623413251903490971e-04
1.159015168799356388e+03 1.000000000000000021e-03
1.193152063734798503e+03 1.778279410038922752e-03
1.224004807713948367e+03 3.162277660168379394e-03
1.252275624391865222e+03 5.623413251903490971e-03
1.279655583904406740e+03 1.000000000000000021e-02
1.309597533025948906e+03 1.778279410038922925e-02
1.354064807969064077e+03 3.162277660168379134e-02
1.418234679526197624e+03 5.623413251903491145e-02
1.498140615737655025e+03 1.000000000000000056e-01
1.600077919357710925e+03 1.778279410038922925e-01
1.713647434637750621e+03 3.162277660168379412e-01
1.832508230150209556e+03 5.623413251903490728e-01
1.956459672031736318e+03 1.000000000000000000e+00
2.127238572858380394e+03 1.778279410038922759e+00
2.395845909435499834e+03 3.162277660168379523e+00
2.692064195068058780e+03 5.623413251903491172e+00
2.963139749765695342e+03 1.000000000000000000e+01
3.230340880127801029e+03 1.778279410038922848e+01
3.503633336624098774e+03 3.162277660168379256e+01
3.790336414426284136e+03 5.623413251903490817e+01
4.097823734396370128e+03 1.000000000000000000e+02
4.430185004818727066e+03 1.778279410038922776e+02
4.802988084065916155e+03 3.162277660168379612e+02
