# Temperature (K), Pressure (bars)
2.286452466092985560e+03 9.999999999999999547e-07
2.311624373184050910e+03 1.778279410038922901e-06
2.336796280275116715e+03 3.162277660168379191e-06
2.364937107850869779e+03 5.623413251903491208e-06
2.396040911694134138e+03 1.000000000000000082e-05
2.429215601771241381e+03 1.778279410038922901e-05
2.464762041404766933e+03 3.162277660168379530e-05
2.501407855921146165e+03 5.623413251903490700e-05
2.536750921961510358e+03 1.000000000000000048e-04
2.568668778885558822e+03 1.778279410038922698e-04
2.595697703707172877e+03 3.162277660168379394e-04
2.618967892105211376e+03 5.623413251903490971e-04
2.642427341929462727e+03 1.000000000000000021e-03
2.671098623098192547e+03 1.778279410038922752e-03
2.709265297437600566e+03 3.162277660168379394e-03
2.759732660412798396e+03 5.623413251903490971e-03
2.824941453859372814e+03 1.000000000000000021e-02
2.906697390483740037e+03 1.778279410038922925e-02
3.011803661063296204e+03 3.162277660168379134e-02
3.146176908956986608e+03 5.623413251903491145e-02
3.304551891991195589e+03 1.000000000000000056e-01
3.488148221079646191e+03 1.778279410038922925e-01
3.690235692769794696e+03 3.162277660168379412e-01
3.927081266615039567e+03 5.623413251903490728e-01
4.210448566699279581e+03 1.000000000000000000e+00
4.545720996969065709e+03 1.778279410038922759e+00
4.987723132415291730e+03 3.162277660168379523e+00
5.625372478796078212e+03 5.623413251903491172e+00
6.620143396394182673e+03 1.000000000000000000e+01
8.096385948016128168e+03 1.778279410038922848e+01
9.900598883206610481e+03 3.162277660168379256e+01
1.000000000000000000e+04 5.623413251903490817e+01
1.000000000000000000e+04 1.000000000000000000e+02
1.000000000000000000e+04 1.778279410038922776e+02
1.000000000000000000e+04 3.162277660168379612e+02
