# Temperature (K), Pressure (bars)
1.163052640801406824e+03 3.162277660168379530e-05
1.209599035421723102e+03 5.623413251903490700e-05
1.256145433395446616e+03 1.000000000000000048e-04
1.318066399331917637e+03 1.778279410038922698e-04
1.380678831653246561e+03 3.162277660168379394e-04
1.436496237004670775e+03 5.623413251903490971e-04
1.487282845339669166e+03 1.000000000000000021e-03
1.547113816762449915e+03 1.778279410038922752e-03
1.633012312151472543e+03 3.162277660168379394e-03
1.716130818916648877e+03 5.623413251903490971e-03
1.776001951873256075e+03 1.000000000000000021e-02
1.830924422116415826e+03 1.778279410038922925e-02
1.888472476319750967e+03 3.162277660168379134e-02
1.950294237275286605e+03 5.623413251903491145e-02
2.021183047345826253e+03 1.000000000000000056e-01
2.110137259003915460e+03 1.778279410038922925e-01
2.217036882955864257e+03 3.162277660168379412e-01
2.365739348761489509e+03 5.623413251903490728e-01
2.583114567594125219e+03 1.000000000000000000e+00
2.818109481797706849e+03 1.778279410038922759e+00
3.038768408753987387e+03 3.162277660168379523e+00
3.262623408824167200e+03 5.623413251903491172e+00
3.495607838434132191e+03 1.000000000000000000e+01
3.742509451255837121e+03 1.778279410038922848e+01
4.010190656352480346e+03 3.162277660168379256e+01
4.304509289853024711e+03 5.623413251903490817e+01
4.632595782074436102e+03 1.000000000000000000e+02
4.997567863028064494e+03 1.778279410038922776e+02
5.420652444444052890e+03 3.162277660168379612e+02
