# Temperature (K), Pressure (bars)
8.718810664586287658e+02 1.000000000000000048e-04
9.274764658966073512e+02 1.778279410038922698e-04
9.830718653344514451e+02 3.162277660168379394e-04
1.033937625905653022e+03 5.623413251903490971e-04
1.083675088903050209e+03 1.000000000000000021e-03
1.135871332920424720e+03 1.778279410038922752e-03
1.187902513531392515e+03 3.162277660168379394e-03
1.237177765598824408e+03 5.623413251903490971e-03
1.283745997184215184e+03 1.000000000000000021e-02
1.327052803317466214e+03 1.778279410038922925e-02
1.368096517271501398e+03 3.162277660168379134e-02
1.413882064309033240e+03 5.623413251903491145e-02
1.471842062583105189e+03 1.000000000000000056e-01
1.540415382284419820e+03 1.778279410038922925e-01
1.632017655646279991e+03 3.162277660168379412e-01
1.799644877109637036e+03 5.623413251903490728e-01
2.055941812109738294e+03 1.000000000000000000e+00
2.337223675407365590e+03 1.778279410038922759e+00
2.606532442258594529e+03 3.162277660168379523e+00
2.866736302587265527e+03 5.623413251903491172e+00
3.121447718652415915e+03 1.000000000000000000e+01
3.377950755984253647e+03 1.778279410038922848e+01
3.645735124735402223e+03 3.162277660168379256e+01
3.931102495294430810e+03 5.623413251903490817e+01
4.240955861894114605e+03 1.000000000000000000e+02
4.578580322904457717e+03 1.778279410038922776e+02
4.960937302019151502e+03 3.162277660168379612e+02
