# Temperature (K), Pressure (bars)
1.872737926106151917e+03 1.778279410038922901e-06
1.877311004179954352e+03 3.162277660168379191e-06
1.882400646907676673e+03 5.623413251903491208e-06
1.890961395043101675e+03 1.000000000000000082e-05
1.904853009535633873e+03 1.778279410038922901e-05
1.924274076668704538e+03 3.162277660168379530e-05
1.948706377865682498e+03 5.623413251903490700e-05
1.979075976223514772e+03 1.000000000000000048e-04
2.016942700251580163e+03 1.778279410038922698e-04
2.061147118535027403e+03 3.162277660168379394e-04
2.110337297426179703e+03 5.623413251903490971e-04
2.164001580638617725e+03 1.000000000000000021e-03
2.223555122627156834e+03 1.778279410038922752e-03
2.288733921852126514e+03 3.162277660168379394e-03
2.366829814902341695e+03 5.623413251903490971e-03
2.469683377620737701e+03 1.000000000000000021e-02
2.587929821246832034e+03 1.778279410038922925e-02
2.712392544521682794e+03 3.162277660168379134e-02
2.846109012613459527e+03 5.623413251903491145e-02
2.990676253319138596e+03 1.000000000000000056e-01
3.148221756398548223e+03 1.778279410038922925e-01
3.321339316864689863e+03 3.162277660168379412e-01
3.512448191420116473e+03 5.623413251903490728e-01
3.723422102350173645e+03 1.000000000000000000e+00
3.956895334020764494e+03 1.778279410038922759e+00
4.218407741465951403e+03 3.162277660168379523e+00
4.517332795004229411e+03 5.623413251903491172e+00
4.863251942697598679e+03 1.000000000000000000e+01
5.284110615827484253e+03 1.778279410038922848e+01
5.816299403162933231e+03 3.162277660168379256e+01
6.525833006779394054e+03 5.623413251903490817e+01
7.529277332253319400e+03 1.000000000000000000e+02
8.969737874647442368e+03 1.778279410038922776e+02
1.083741029537555551e+04 3.162277660168379612e+02
