# Temperature (K), Pressure (bars)
1.993093759818629678e+03 9.999999999999999547e-07
2.032332200184478552e+03 1.778279410038922901e-06
2.071570640550857206e+03 3.162277660168379191e-06
2.114844341023028392e+03 5.623413251903491208e-06
2.160614262488086752e+03 1.000000000000000082e-05
2.205183156410586435e+03 1.778279410038922901e-05
2.246385093289301949e+03 3.162277660168379530e-05
2.283619878415063340e+03 5.623413251903490700e-05
2.317360095958777492e+03 1.000000000000000048e-04
2.348591412901939293e+03 1.778279410038922698e-04
2.379149314166924796e+03 3.162277660168379394e-04
2.411656172008081739e+03 5.623413251903490971e-04
2.448380797607252134e+03 1.000000000000000021e-03
2.491859554584966645e+03 1.778279410038922752e-03
2.543356835365842471e+03 3.162277660168379394e-03
2.604183989365332309e+03 5.623413251903490971e-03
2.668131823427900144e+03 1.000000000000000021e-02
2.740685026767696399e+03 1.778279410038922925e-02
2.845799568650770652e+03 3.162277660168379134e-02
2.981205333862265434e+03 5.623413251903491145e-02
3.136151630286601176e+03 1.000000000000000056e-01
3.313411832491903169e+03 1.778279410038922925e-01
3.513451267470913990e+03 3.162277660168379412e-01
3.736703661915370503e+03 5.623413251903490728e-01
3.987126869511313089e+03 1.000000000000000000e+00
4.275002141245118764e+03 1.778279410038922759e+00
4.598838992950119973e+03 3.162277660168379523e+00
5.004034368978464954e+03 5.623413251903491172e+00
5.541945500524202544e+03 1.000000000000000000e+01
6.314067117575916200e+03 1.778279410038922848e+01
7.490778879180583317e+03 3.162277660168379256e+01
9.142955484401174544e+03 5.623413251903490817e+01
1.116040008171885347e+04 1.000000000000000000e+02
1.358658867986548830e+04 1.778279410038922776e+02
1.648192745768447276e+04 3.162277660168379612e+02
