# Temperature (K), Pressure (bars)
2.415496937295855787e+03 9.999999999999999547e-07
2.431583976400273514e+03 1.778279410038922901e-06
2.447671015504692150e+03 3.162277660168379191e-06
2.484870912236226559e+03 5.623413251903491208e-06
2.520910639459271806e+03 1.000000000000000082e-05
2.551609084098315179e+03 1.778279410038922901e-05
2.584771067585352739e+03 3.162277660168379530e-05
2.619533315079265321e+03 5.623413251903490700e-05
2.657667573426552735e+03 1.000000000000000048e-04
2.701167568588332870e+03 1.778279410038922698e-04
2.751022507237505124e+03 3.162277660168379394e-04
2.806932528363132860e+03 5.623413251903490971e-04
2.866573138707369708e+03 1.000000000000000021e-03
2.926589838555477399e+03 1.778279410038922752e-03
2.984694077556718184e+03 3.162277660168379394e-03
3.040262247853534518e+03 5.623413251903490971e-03
3.095066950476699276e+03 1.000000000000000021e-02
3.153556828413169569e+03 1.778279410038922925e-02
3.215462255667032878e+03 3.162277660168379134e-02
3.279132878750727286e+03 5.623413251903491145e-02
3.383894020389083835e+03 1.000000000000000056e-01
3.566316215450361597e+03 1.778279410038922925e-01
3.788015373674026250e+03 3.162277660168379412e-01
4.053359983672834915e+03 5.623413251903490728e-01
4.365734189824889654e+03 1.000000000000000000e+00
4.780242574641290958e+03 1.778279410038922759e+00
5.394713018168100461e+03 3.162277660168379523e+00
6.393821629926598689e+03 5.623413251903491172e+00
7.857500868291780534e+03 1.000000000000000000e+01
9.614389041415388419e+03 1.778279410038922848e+01
1.000000000000000000e+04 3.162277660168379256e+01
1.000000000000000000e+04 5.623413251903490817e+01
1.000000000000000000e+04 1.000000000000000000e+02
1.000000000000000000e+04 1.778279410038922776e+02
1.000000000000000000e+04 3.162277660168379612e+02
