# Temperature (K), Pressure (bars)
9.105377074217333302e+02 1.000000000000000048e-04
9.531528215330042713e+02 1.778279410038922698e-04
9.957679360184547477e+02 3.162277660168379394e-04
1.037092258297216404e+03 5.623413251903490971e-04
1.080295362838594428e+03 1.000000000000000021e-03
1.127009315056678133e+03 1.778279410038922752e-03
1.176195626162085318e+03 3.162277660168379394e-03
1.228373949483428078e+03 5.623413251903490971e-03
1.283451775654411904e+03 1.000000000000000021e-02
1.348495826182882865e+03 1.778279410038922925e-02
1.440263156882993599e+03 3.162277660168379134e-02
1.575015711083445694e+03 5.623413251903491145e-02
1.742150509553548773e+03 1.000000000000000056e-01
1.938258316864694962e+03 1.778279410038922925e-01
2.178194971053127574e+03 3.162277660168379412e-01
2.426819536426385184e+03 5.623413251903490728e-01
2.655910641935090098e+03 1.000000000000000000e+00
2.876079629936091806e+03 1.778279410038922759e+00
3.093811556931334962e+03 3.162277660168379523e+00
3.314963743462156799e+03 5.623413251903491172e+00
3.545386681725365179e+03 1.000000000000000000e+01
3.790956299877118909e+03 1.778279410038922848e+01
4.059682312396686939e+03 3.162277660168379256e+01
4.356437674913994670e+03 5.623413251903490817e+01
4.688397194002111064e+03 1.000000000000000000e+02
5.059131763392139874e+03 1.778279410038922776e+02
5.489873662717407569e+03 3.162277660168379612e+02
