# Temperature (K), Pressure (bars)
1.085568562893451372e+03 9.999999999999999547e-07
1.131434929837559594e+03 1.778279410038922901e-06
1.177301296784718943e+03 3.162277660168379191e-06
1.223926300757510944e+03 5.623413251903491208e-06
1.271895673875416151e+03 1.000000000000000082e-05
1.323088808757648849e+03 1.778279410038922901e-05
1.379261257568140081e+03 3.162277660168379530e-05
1.443128502256689671e+03 5.623413251903490700e-05
1.515305816469679939e+03 1.000000000000000048e-04
1.597639204241382686e+03 1.778279410038922698e-04
1.696784190477461379e+03 3.162277660168379394e-04
1.806494237880918263e+03 5.623413251903490971e-04
1.923074398270122401e+03 1.000000000000000021e-03
2.059753626666610216e+03 1.778279410038922752e-03
2.214391788306836588e+03 3.162277660168379394e-03
2.372778912217426750e+03 5.623413251903490971e-03
2.531275562328852629e+03 1.000000000000000021e-02
2.692307162694678027e+03 1.778279410038922925e-02
2.858665952529585866e+03 3.162277660168379134e-02
3.033023370567938400e+03 5.623413251903491145e-02
3.217600370979760555e+03 1.000000000000000056e-01
3.414329497432862809e+03 1.778279410038922925e-01
3.626868439828156170e+03 3.162277660168379412e-01
3.862506148849304736e+03 5.623413251903490728e-01
4.133326256864169409e+03 1.000000000000000000e+00
4.439842579834778917e+03 1.778279410038922759e+00
4.826932673620295645e+03 3.162277660168379523e+00
5.351380750285587965e+03 5.623413251903491172e+00
6.115129048458607940e+03 1.000000000000000000e+01
7.255625787366722761e+03 1.778279410038922848e+01
8.880191433984147807e+03 3.162277660168379256e+01
1.083611756746438732e+04 5.623413251903490817e+01
1.318222679466776026e+04 1.000000000000000000e+02
1.604359632286205124e+04 1.778279410038922776e+02
1.945630143916568341e+04 3.162277660168379612e+02
