# Temperature (K), Pressure (bars)
2.466103912002585275e+03 5.623413251903491208e-06
2.477389516717814331e+03 1.000000000000000082e-05
2.490860934007668220e+03 1.778279410038922901e-05
2.513773772566239131e+03 3.162277660168379530e-05
2.544304907390219341e+03 5.623413251903490700e-05
2.578584323998478794e+03 1.000000000000000048e-04
2.615825059219963805e+03 1.778279410038922698e-04
2.656501048751689723e+03 3.162277660168379394e-04
2.700143275350339991e+03 5.623413251903490971e-04
2.746799560727254175e+03 1.000000000000000021e-03
2.797531908549154650e+03 1.778279410038922752e-03
2.852097238494446174e+03 3.162277660168379394e-03
2.908397961967764786e+03 5.623413251903490971e-03
2.962253324518540467e+03 1.000000000000000021e-02
3.011469713590263382e+03 1.778279410038922925e-02
3.054551858313638604e+03 3.162277660168379134e-02
3.100601577028461179e+03 5.623413251903491145e-02
3.150809792324863338e+03 1.000000000000000056e-01
3.230696211437172678e+03 1.778279410038922925e-01
3.383948575429187713e+03 3.162277660168379412e-01
3.577384592347284524e+03 5.623413251903490728e-01
3.783685911213536201e+03 1.000000000000000000e+00
4.021133313822057062e+03 1.778279410038922759e+00
4.297478097834146865e+03 3.162277660168379523e+00
4.622046529067672054e+03 5.623413251903491172e+00
4.997530385096400096e+03 1.000000000000000000e+01
5.466798907801349742e+03 1.778279410038922848e+01
6.085692256662416185e+03 3.162277660168379256e+01
6.957951174061849997e+03 5.623413251903490817e+01
8.234103531015447516e+03 1.000000000000000000e+02
9.985581717691089580e+03 1.778279410038922776e+02
1.211437380902645964e+04 3.162277660168379612e+02
