# Temperature (K), Pressure (bars)
9.060788855412938574e+02 1.000000000000000021e-03
9.426032132506456946e+02 1.778279410038922752e-03
9.791275413388075322e+02 3.162277660168379394e-03
1.016426833992895240e+03 5.623413251903490971e-03
1.054693763103894071e+03 1.000000000000000021e-02
1.093970510866507311e+03 1.778279410038922925e-02
1.135194692807142019e+03 3.162277660168379134e-02
1.180714451363610806e+03 5.623413251903491145e-02
1.234618470543799731e+03 1.000000000000000056e-01
1.299501718148234204e+03 1.778279410038922925e-01
1.384060038895466960e+03 3.162277660168379412e-01
1.508851380054665469e+03 5.623413251903490728e-01
1.690125769621914969e+03 1.000000000000000000e+00
1.933256822925774031e+03 1.778279410038922759e+00
2.218996148527938203e+03 3.162277660168379523e+00
2.510732609854104794e+03 5.623413251903491172e+00
2.794160418212324657e+03 1.000000000000000000e+01
3.073092424258188203e+03 1.778279410038922848e+01
3.354798326230974453e+03 3.162277660168379256e+01
3.645378185254938217e+03 5.623413251903490817e+01
3.952732643894318244e+03 1.000000000000000000e+02
4.281258483701471050e+03 1.778279410038922776e+02
4.646162679345616198e+03 3.162277660168379612e+02
