# Temperature (K), Pressure (bars)
1.179686967909480245e+03 3.162277660168379530e-05
1.215607216730945765e+03 5.623413251903490700e-05
1.251527468669621385e+03 1.000000000000000048e-04
1.293908258351390032e+03 1.778279410038922698e-04
1.343379800999835652e+03 3.162277660168379394e-04
1.396721785159152887e+03 5.623413251903490971e-04
1.456390417783821704e+03 1.000000000000000021e-03
1.529786974543341785e+03 1.778279410038922752e-03
1.609341296962989645e+03 3.162277660168379394e-03
1.683196724610339515e+03 5.623413251903490971e-03
1.755884194592335234e+03 1.000000000000000021e-02
1.833949696118870861e+03 1.778279410038922925e-02
1.924382721948576545e+03 3.162277660168379134e-02
2.027629809655865756e+03 5.623413251903491145e-02
2.166071664201851945e+03 1.000000000000000056e-01
2.363590286207990630e+03 1.778279410038922925e-01
2.573334242082109540e+03 3.162277660168379412e-01
2.766293037207193720e+03 5.623413251903490728e-01
2.958952451821083741e+03 1.000000000000000000e+00
3.156637987033224363e+03 1.778279410038922759e+00
3.362342473138601690e+03 3.162277660168379523e+00
3.579343133039928034e+03 5.623413251903491172e+00
3.812075520246997257e+03 1.000000000000000000e+01
4.065880233310853328e+03 1.778279410038922848e+01
4.348778230296736183e+03 3.162277660168379256e+01
4.666907585862235464e+03 5.623413251903490817e+01
5.029165911639540354e+03 1.000000000000000000e+02
5.440160345826746379e+03 1.778279410038922776e+02
5.927888817969625961e+03 3.162277660168379612e+02
