# Temperature (K), Pressure (bars)
6.751493462638517667e+04 3.162277660168379394e-03
7.063964895203510241e+04 5.623413251903490971e-03
7.407368863236029574e+04 1.000000000000000021e-02
7.792173714881745400e+04 1.778279410038922925e-02
8.232241327086473757e+04 3.162277660168379134e-02
8.745614405847447051e+04 5.623413251903491145e-02
9.355741793594426417e+04 1.000000000000000056e-01
1.009362526961460244e+05 1.778279410038922925e-01
1.099928840503759857e+05 3.162277660168379412e-01
1.212509988442458853e+05 5.623413251903490728e-01
1.353810707787116116e+05 1.000000000000000000e+00
1.532334197559077002e+05 1.778279410038922759e+00
1.758829542415320175e+05 3.162277660168379523e+00
2.046497568881971238e+05 5.623413251903491172e+00
2.411898564290316717e+05 1.000000000000000000e+01
2.875092331355679198e+05 1.778279410038922848e+01
3.459690065376047278e+05 3.162277660168379256e+01
4.192807557301908382e+05 5.623413251903490817e+01
5.102443761583712767e+05 1.000000000000000000e+02
6.212446033426736249e+05 1.778279410038922776e+02
7.536752345735888230e+05 3.162277660168379612e+02
