# Temperature (K), Pressure (bars)
2.317374193050595750e+03 5.623413251903491208e-06
2.328786764750462680e+03 1.000000000000000082e-05
2.340349007191877263e+03 1.778279410038922901e-05
2.359087660969565604e+03 3.162277660168379530e-05
2.385202088540749173e+03 5.623413251903490700e-05
2.419419756473230336e+03 1.000000000000000048e-04
2.461437794384590234e+03 1.778279410038922698e-04
2.511797657003674431e+03 3.162277660168379394e-04
2.572146013520289671e+03 5.623413251903490971e-04
2.642958018246207303e+03 1.000000000000000021e-03
2.723760537752676100e+03 1.778279410038922752e-03
2.812618955539983290e+03 3.162277660168379394e-03
2.905362159957317090e+03 5.623413251903490971e-03
2.994316797717507143e+03 1.000000000000000021e-02
3.073742876403935043e+03 1.778279410038922925e-02
3.138858577060412699e+03 3.162277660168379134e-02
3.199776987141471182e+03 5.623413251903491145e-02
3.251943997344303170e+03 1.000000000000000056e-01
3.327268583545296678e+03 1.778279410038922925e-01
3.492557379647817470e+03 3.162277660168379412e-01
3.708814062137137626e+03 5.623413251903490728e-01
3.941403349107863960e+03 1.000000000000000000e+00
4.218845488059178933e+03 1.778279410038922759e+00
4.526003717995568877e+03 3.162277660168379523e+00
4.903100549533558478e+03 5.623413251903491172e+00
5.390637633582609851e+03 1.000000000000000000e+01
6.070314128606249142e+03 1.778279410038922848e+01
7.091744552598258451e+03 3.162277660168379256e+01
8.585277135036991240e+03 5.623413251903490817e+01
1.048438073715064274e+04 1.000000000000000000e+02
1.276538229956342002e+04 1.778279410038922776e+02
1.548705774792536249e+04 3.162277660168379612e+02
