# Temperature (K), Pressure (bars)
2.306691782224322196e+03 9.999999999999999547e-07
2.315781969722758731e+03 1.778279410038922901e-06
2.324872157221194357e+03 3.162277660168379191e-06
2.350616036718094165e+03 5.623413251903491208e-06
2.384776922595342512e+03 1.000000000000000082e-05
2.421474910760649436e+03 1.778279410038922901e-05
2.460607337311825177e+03 3.162277660168379530e-05
2.500129305462390221e+03 5.623413251903490700e-05
2.537290119696299826e+03 1.000000000000000048e-04
2.567830887407463251e+03 1.778279410038922698e-04
2.590019838858153435e+03 3.162277660168379394e-04
2.609755809071226395e+03 5.623413251903490971e-04
2.637937128449823831e+03 1.000000000000000021e-03
2.681927704022910802e+03 1.778279410038922752e-03
2.741512577448948832e+03 3.162277660168379394e-03
2.812840821248757038e+03 5.623413251903490971e-03
2.888183688929724667e+03 1.000000000000000021e-02
2.969361070811995432e+03 1.778279410038922925e-02
3.078069581660598487e+03 3.162277660168379134e-02
3.224540306289703949e+03 5.623413251903491145e-02
3.405876654517766838e+03 1.000000000000000056e-01
3.605509900815988658e+03 1.778279410038922925e-01
3.844275761649735614e+03 3.162277660168379412e-01
4.111240044957688042e+03 5.623413251903490728e-01
4.450350169466877560e+03 1.000000000000000000e+00
4.921502645006997227e+03 1.778279410038922759e+00
5.662903793453697290e+03 3.162277660168379523e+00
6.856594102687535269e+03 5.623413251903491172e+00
8.457817983062734129e+03 1.000000000000000000e+01
1.000000000000000000e+04 1.778279410038922848e+01
1.000000000000000000e+04 3.162277660168379256e+01
1.000000000000000000e+04 5.623413251903490817e+01
1.000000000000000000e+04 1.000000000000000000e+02
1.000000000000000000e+04 1.778279410038922776e+02
1.000000000000000000e+04 3.162277660168379612e+02
