# Temperature (K), Pressure (bars)
1.990277229836307015e+03 3.162277660168379191e-06
1.990694930911586198e+03 5.623413251903491208e-06
1.991312783537556243e+03 1.000000000000000082e-05
2.000861794057992938e+03 1.778279410038922901e-05
2.021435294848374269e+03 3.162277660168379530e-05
2.052070935905168881e+03 5.623413251903490700e-05
2.091987980322070598e+03 1.000000000000000048e-04
2.140647040236591238e+03 1.778279410038922698e-04
2.195483751867806859e+03 3.162277660168379394e-04
2.252674065756710206e+03 5.623413251903490971e-04
2.310485932051976306e+03 1.000000000000000021e-03
2.366584831824772664e+03 1.778279410038922752e-03
2.419101887973584780e+03 3.162277660168379394e-03
2.466980054551056583e+03 5.623413251903490971e-03
2.514118099668055947e+03 1.000000000000000021e-02
2.562011530390425833e+03 1.778279410038922925e-02
2.629398289685660529e+03 3.162277660168379134e-02
2.742784444631975020e+03 5.623413251903491145e-02
2.881264672590973987e+03 1.000000000000000056e-01
3.025940120382304485e+03 1.778279410038922925e-01
3.184953442058088513e+03 3.162277660168379412e-01
3.361591134187268381e+03 5.623413251903490728e-01
3.557379832698159589e+03 1.000000000000000000e+00
3.772934643840619628e+03 1.778279410038922759e+00
4.010326331305821896e+03 3.162277660168379523e+00
4.274669568566027010e+03 5.623413251903491172e+00
4.574271609919380353e+03 1.000000000000000000e+01
4.919723649444721559e+03 1.778279410038922848e+01
5.331306169554923144e+03 3.162277660168379256e+01
5.835353711601495888e+03 5.623413251903490817e+01
6.475224827244212975e+03 1.000000000000000000e+02
7.323943268823256403e+03 1.778279410038922776e+02
8.495637442762310457e+03 3.162277660168379612e+02
