# Temperature (K), Pressure (bars)
8.877825428060333479e+02 3.162277660168379394e-04
9.413155925850983294e+02 5.623413251903490971e-04
9.948486436393461645e+02 1.000000000000000021e-03
1.045977845965094957e+03 1.778279410038922752e-03
1.096388496080872983e+03 3.162277660168379394e-03
1.148683791469928792e+03 5.623413251903490971e-03
1.209415731196924753e+03 1.000000000000000021e-02
1.280097121514343371e+03 1.778279410038922925e-02
1.386883680764115525e+03 3.162277660168379134e-02
1.568203809626447082e+03 5.623413251903491145e-02
1.804092200973526133e+03 1.000000000000000056e-01
2.060311040889483593e+03 1.778279410038922925e-01
2.314084072159157586e+03 3.162277660168379412e-01
2.548643196044903107e+03 5.623413251903490728e-01
2.766970243908648627e+03 1.000000000000000000e+00
2.976889347314208408e+03 1.778279410038922759e+00
3.186408768028185023e+03 3.162277660168379523e+00
3.402376621366889594e+03 5.623413251903491172e+00
3.630551285658651068e+03 1.000000000000000000e+01
3.876386061741673529e+03 1.778279410038922848e+01
4.147895326172465502e+03 3.162277660168379256e+01
4.449531347004116469e+03 5.623413251903490817e+01
4.788623571854864167e+03 1.000000000000000000e+02
5.168600826046958900e+03 1.778279410038922776e+02
5.612592810968352751e+03 3.162277660168379612e+02
