# Temperature (K), Pressure (bars)
8.338117459987169013e+02 3.162277660168379394e-04
8.692149556379971500e+02 5.623413251903490971e-04
9.046181664321808285e+02 1.000000000000000021e-03
9.402782178312612587e+02 1.778279410038922752e-03
9.773813402937746559e+02 3.162277660168379394e-03
1.016495230688074230e+03 5.623413251903490971e-03
1.056385698332868060e+03 1.000000000000000021e-02
1.097833074216229079e+03 1.778279410038922925e-02
1.142777809299349656e+03 3.162277660168379134e-02
1.195919200670714190e+03 5.623413251903491145e-02
1.258065672778123599e+03 1.000000000000000056e-01
1.343788117824719166e+03 1.778279410038922925e-01
1.504991980950614106e+03 3.162277660168379412e-01
1.749651046237909213e+03 5.623413251903490728e-01
2.023995138600442488e+03 1.000000000000000000e+00
2.300199543485813592e+03 1.778279410038922759e+00
2.572515082327847267e+03 3.162277660168379523e+00
2.835149859162001121e+03 5.623413251903491172e+00
3.091492581622620492e+03 1.000000000000000000e+01
3.348955348509168743e+03 1.778279410038922848e+01
3.617449879542076360e+03 3.162277660168379256e+01
3.902830058651554282e+03 5.623413251903490817e+01
4.212034711411460194e+03 1.000000000000000000e+02
4.548681106313305463e+03 1.778279410038922776e+02
4.929261820083691418e+03 3.162277660168379612e+02
