# Temperature (K), Pressure (bars)
1.562811115511435901e+03 1.778279410038922901e-06
1.574525437304458592e+03 3.162277660168379191e-06
1.590772715501724178e+03 5.623413251903491208e-06
1.614084438924392998e+03 1.000000000000000082e-05
1.644312360954157384e+03 1.778279410038922901e-05
1.682351721967617323e+03 3.162277660168379530e-05
1.729310482770142698e+03 5.623413251903490700e-05
1.783729618604190819e+03 1.000000000000000048e-04
1.844903818207180166e+03 1.778279410038922698e-04
1.911642321052882835e+03 3.162277660168379394e-04
1.983333521256282893e+03 5.623413251903490971e-04
2.059646997889577051e+03 1.000000000000000021e-03
2.146917222413308536e+03 1.778279410038922752e-03
2.254487627232201703e+03 3.162277660168379394e-03
2.374635260619730616e+03 5.623413251903490971e-03
2.499014648250463324e+03 1.000000000000000021e-02
2.629373405838457074e+03 1.778279410038922925e-02
2.767196264208679167e+03 3.162277660168379134e-02
2.914050739132617309e+03 5.623413251903491145e-02
3.071753918490727301e+03 1.000000000000000056e-01
3.242634437052946396e+03 1.778279410038922925e-01
3.429390990367846825e+03 3.162277660168379412e-01
3.634735290506640922e+03 5.623413251903490728e-01
3.861911596003677914e+03 1.000000000000000000e+00
4.116753067444140470e+03 1.778279410038922759e+00
4.409349950328722116e+03 3.162277660168379523e+00
4.746355033029872175e+03 5.623413251903491172e+00
5.162650602098243326e+03 1.000000000000000000e+01
5.703303563347833915e+03 1.778279410038922848e+01
6.448212327757900312e+03 3.162277660168379256e+01
7.524115601030664038e+03 5.623413251903490817e+01
9.081768643865878403e+03 1.000000000000000000e+02
1.105326890423765872e+04 1.778279410038922776e+02
1.340438373618656260e+04 3.162277660168379612e+02
