# Temperature (K), Pressure (bars)
1.502146804256372661e+03 9.999999999999999547e-07
1.544131747701251015e+03 1.778279410038922901e-06
1.586116691146129824e+03 3.162277660168379191e-06
1.631461828219048812e+03 5.623413251903491208e-06
1.680692691494202109e+03 1.000000000000000082e-05
1.734419828333053147e+03 1.778279410038922901e-05
1.792783575523878881e+03 3.162277660168379530e-05
1.854988194145929583e+03 5.623413251903490700e-05
1.920336296602880793e+03 1.000000000000000048e-04
1.988771777049556022e+03 1.778279410038922698e-04
2.061189121169813916e+03 3.162277660168379394e-04
2.140686868819396750e+03 5.623413251903490971e-04
2.234007913855969491e+03 1.000000000000000021e-03
2.343023381797125239e+03 1.778279410038922752e-03
2.462636659751031402e+03 3.162277660168379394e-03
2.590017443352736791e+03 5.623413251903490971e-03
2.725747159255171482e+03 1.000000000000000021e-02
2.871298567298161743e+03 1.778279410038922925e-02
3.029289794360336600e+03 3.162277660168379134e-02
3.205058798966112136e+03 5.623413251903491145e-02
3.397034747926721593e+03 1.000000000000000056e-01
3.599993001530021957e+03 1.778279410038922925e-01
3.836895133038915446e+03 3.162277660168379412e-01
4.109047521891422548e+03 5.623413251903490728e-01
4.446368801924918444e+03 1.000000000000000000e+00
4.912391759463122980e+03 1.778279410038922759e+00
5.623897266468869020e+03 3.162277660168379523e+00
6.698846793660957701e+03 5.623413251903491172e+00
8.238082866402095533e+03 1.000000000000000000e+01
1.000000000000000000e+04 1.778279410038922848e+01
1.000000000000000000e+04 3.162277660168379256e+01
1.000000000000000000e+04 5.623413251903490817e+01
1.000000000000000000e+04 1.000000000000000000e+02
1.000000000000000000e+04 1.778279410038922776e+02
1.000000000000000000e+04 3.162277660168379612e+02
