# Temperature (K), Pressure (bars)
1.136319554194235025e+03 1.778279410038922901e-06
1.203562775317630894e+03 3.162277660168379191e-06
1.270827725271308282e+03 5.623413251903491208e-06
1.337417185742884385e+03 1.000000000000000082e-05
1.395335517547659492e+03 1.778279410038922901e-05
1.444639026675483365e+03 3.162277660168379530e-05
1.501990941036201320e+03 5.623413251903490700e-05
1.583441086295182913e+03 1.000000000000000048e-04
1.666082740229700221e+03 1.778279410038922698e-04
1.731922884669629184e+03 3.162277660168379394e-04
1.794397551593852313e+03 5.623413251903490971e-04
1.858836838389748436e+03 1.000000000000000021e-03
1.923655262409831039e+03 1.778279410038922752e-03
1.994582084753962590e+03 3.162277660168379394e-03
2.072550073301541488e+03 5.623413251903490971e-03
2.171631825880075667e+03 1.000000000000000021e-02
2.310055882326857500e+03 1.778279410038922925e-02
2.462926972898178064e+03 3.162277660168379134e-02
2.612457516574977944e+03 5.623413251903491145e-02
2.766812023683423831e+03 1.000000000000000056e-01
2.928445321604298442e+03 1.778279410038922925e-01
3.099288582542545100e+03 3.162277660168379412e-01
3.280428674751723520e+03 5.623413251903490728e-01
3.472690363393799089e+03 1.000000000000000000e+00
3.678352270371110535e+03 1.778279410038922759e+00
3.901676540803360695e+03 3.162277660168379523e+00
4.148287864118676225e+03 5.623413251903491172e+00
4.425171370529695196e+03 1.000000000000000000e+01
4.741607376841374389e+03 1.778279410038922848e+01
5.112505658685283379e+03 3.162277660168379256e+01
5.553977923520178592e+03 5.623413251903490817e+01
6.092274247431463664e+03 1.000000000000000000e+02
6.769264264462317442e+03 1.778279410038922776e+02
7.654055808202348089e+03 3.162277660168379612e+02
