# Temperature (K), Pressure (bars)
9.788345033021901145e+02 1.000000000000000048e-04
1.030415683328126534e+03 1.778279410038922698e-04
1.081996864635202883e+03 3.162277660168379394e-04
1.130404678684433293e+03 5.623413251903490971e-04
1.175455329031134625e+03 1.000000000000000021e-03
1.220988147180465376e+03 1.778279410038922752e-03
1.269447810843016669e+03 3.162277660168379394e-03
1.323906748878494909e+03 5.623413251903490971e-03
1.388397161344145388e+03 1.000000000000000021e-02
1.469741632562376708e+03 1.778279410038922925e-02
1.571076875280525428e+03 3.162277660168379134e-02
1.688602815718033753e+03 5.623413251903491145e-02
1.828025054631326384e+03 1.000000000000000056e-01
1.976504474447930988e+03 1.778279410038922925e-01
2.147630537843240745e+03 3.162277660168379412e-01
2.375701898640458239e+03 5.623413251903490728e-01
2.617220923982782551e+03 1.000000000000000000e+00
2.839903613278192552e+03 1.778279410038922759e+00
3.059662946121541154e+03 3.162277660168379523e+00
3.283015174580398707e+03 5.623413251903491172e+00
3.515061241020157468e+03 1.000000000000000000e+01
3.761241834861209554e+03 1.778279410038922848e+01
4.029118725023902243e+03 3.162277660168379256e+01
4.324209835511321216e+03 5.623413251903490817e+01
4.653598083082970334e+03 1.000000000000000000e+02
5.020371227627462758e+03 1.778279410038922776e+02
5.446023890933426628e+03 3.162277660168379612e+02
