# Temperature (K), Pressure (bars)
2.283623451478767947e+03 9.999999999999999547e-07
2.321501237644497905e+03 1.778279410038922901e-06
2.359379023814331958e+03 3.162277660168379191e-06
2.397613251030839820e+03 5.623413251903491208e-06
2.435605348526524722e+03 1.000000000000000082e-05
2.472054770044576799e+03 1.778279410038922901e-05
2.505050973108869584e+03 3.162277660168379530e-05
2.534420096182711859e+03 5.623413251903490700e-05
2.562556973814144840e+03 1.000000000000000048e-04
2.593039694155945654e+03 1.778279410038922698e-04
2.629906350741539427e+03 3.162277660168379394e-04
2.676893054487843074e+03 5.623413251903490971e-04
2.736633022334655834e+03 1.000000000000000021e-03
2.810188772569719731e+03 1.778279410038922752e-03
2.897399371724114644e+03 3.162277660168379394e-03
2.997122651223219691e+03 5.623413251903490971e-03
3.108072443275303158e+03 1.000000000000000021e-02
3.230726051388814085e+03 1.778279410038922925e-02
3.373878925658813387e+03 3.162277660168379134e-02
3.565754142291592416e+03 5.623413251903491145e-02
3.830529683926991765e+03 1.000000000000000056e-01
4.213984084820095632e+03 1.778279410038922925e-01
4.876722296993993950e+03 3.162277660168379412e-01
5.950486126504818458e+03 5.623413251903490728e-01
7.395497799751708044e+03 1.000000000000000000e+00
8.942725688000256923e+03 1.778279410038922759e+00
1.044973229187237121e+04 3.162277660168379523e+00
1.215686651511593482e+04 5.623413251903491172e+00
1.432482327167142103e+04 1.000000000000000000e+01
1.707269300671170276e+04 1.778279410038922848e+01
2.054066783763626154e+04 3.162277660168379256e+01
2.488981773610334130e+04 5.623413251903490817e+01
3.028436868067944306e+04 1.000000000000000000e+02
3.687090213413433958e+04 1.778279410038922776e+02
4.472782731949925073e+04 3.162277660168379612e+02
