# Temperature (K), Pressure (bars)
7.985501048802384503e+02 1.000000000000000048e-04
8.469680051777837662e+02 1.778279410038922698e-04
8.953859068473135494e+02 3.162277660168379394e-04
9.426909895289441010e+02 5.623413251903490971e-04
9.899154159085666151e+02 1.000000000000000021e-03
1.038605127121408486e+03 1.778279410038922752e-03
1.090524237149779310e+03 3.162277660168379394e-03
1.148734349913857159e+03 5.623413251903490971e-03
1.216555452161662288e+03 1.000000000000000021e-02
1.300006304787986892e+03 1.778279410038922925e-02
1.405814543571205377e+03 3.162277660168379134e-02
1.564589506711818785e+03 5.623413251903491145e-02
1.796395998380323590e+03 1.000000000000000056e-01
2.056426343088008707e+03 1.778279410038922925e-01
2.306298834130797331e+03 3.162277660168379412e-01
2.540522707069521857e+03 5.623413251903490728e-01
2.759006060345401238e+03 1.000000000000000000e+00
2.969245307562588550e+03 1.778279410038922759e+00
3.178995516664361730e+03 3.162277660168379523e+00
3.394975995630071338e+03 5.623413251903491172e+00
3.622924734962850835e+03 1.000000000000000000e+01
3.868293642040533541e+03 1.778279410038922848e+01
4.139190749700249398e+03 3.162277660168379256e+01
4.439936239433164701e+03 5.623413251903490817e+01
4.777844484480096980e+03 1.000000000000000000e+02
5.156599440682795830e+03 1.778279410038922776e+02
5.598652099846158308e+03 3.162277660168379612e+02
