# Temperature (K), Pressure (bars)
2.377380757479357271e+03 9.999999999999999547e-07
2.378325816019799731e+03 1.778279410038922901e-06
2.379270874560241737e+03 3.162277660168379191e-06
2.401358962911794151e+03 5.623413251903491208e-06
2.431412180912002896e+03 1.000000000000000082e-05
2.462504903239239866e+03 1.778279410038922901e-05
2.497246621601414063e+03 3.162277660168379530e-05
2.535050931197490627e+03 5.623413251903490700e-05
2.575190803520262307e+03 1.000000000000000048e-04
2.618742209450586415e+03 1.778279410038922698e-04
2.666051597342136120e+03 3.162277660168379394e-04
2.715972583359513010e+03 5.623413251903490971e-04
2.767769530601042334e+03 1.000000000000000021e-03
2.820037029580458238e+03 1.778279410038922752e-03
2.871434332317895041e+03 3.162277660168379394e-03
2.924840036734251953e+03 5.623413251903490971e-03
2.982971225701690400e+03 1.000000000000000021e-02
3.045694758815798195e+03 1.778279410038922925e-02
3.096815546371524761e+03 3.162277660168379134e-02
3.146942598634565002e+03 5.623413251903491145e-02
3.251101749822721104e+03 1.000000000000000056e-01
3.412281829307566113e+03 1.778279410038922925e-01
3.605342589289800344e+03 3.162277660168379412e-01
3.834949084727068112e+03 5.623413251903490728e-01
4.115771549691457949e+03 1.000000000000000000e+00
4.417132452399629074e+03 1.778279410038922759e+00
4.795425722089079500e+03 3.162277660168379523e+00
5.305028356531526697e+03 5.623413251903491172e+00
6.062835148697853583e+03 1.000000000000000000e+01
7.244554692671072189e+03 1.778279410038922848e+01
8.881846033383217218e+03 3.162277660168379256e+01
1.000000000000000000e+04 5.623413251903490817e+01
1.000000000000000000e+04 1.000000000000000000e+02
1.000000000000000000e+04 1.778279410038922776e+02
1.000000000000000000e+04 3.162277660168379612e+02
