# Temperature (K), Pressure (bars)
2.280570056038788152e+03 9.999999999999999547e-07
2.295552067700158204e+03 1.778279410038922901e-06
2.310534079361534168e+03 3.162277660168379191e-06
2.332703930138518899e+03 5.623413251903491208e-06
2.360172601077199943e+03 1.000000000000000082e-05
2.389638103285953093e+03 1.778279410038922901e-05
2.420929145492155840e+03 3.162277660168379530e-05
2.454219121449919840e+03 5.623413251903490700e-05
2.489290738949855040e+03 1.000000000000000048e-04
2.525160314634190399e+03 1.778279410038922698e-04
2.560634439380362437e+03 3.162277660168379394e-04
2.594384116400147377e+03 5.623413251903490971e-04
2.624321896112139257e+03 1.000000000000000021e-03
2.649433945493561623e+03 1.778279410038922752e-03
2.671563159963114231e+03 3.162277660168379394e-03
2.695494153072684639e+03 5.623413251903490971e-03
2.724491741663709035e+03 1.000000000000000021e-02
2.764034660361377973e+03 1.778279410038922925e-02
2.812770510813445981e+03 3.162277660168379134e-02
2.883651282522470865e+03 5.623413251903491145e-02
3.002415195395395131e+03 1.000000000000000056e-01
3.151710669733399754e+03 1.778279410038922925e-01
3.313418510141274055e+03 3.162277660168379412e-01
3.494910595040036242e+03 5.623413251903490728e-01
3.699676068919062345e+03 1.000000000000000000e+00
3.930283797460884671e+03 1.778279410038922759e+00
4.190216214208501697e+03 3.162277660168379523e+00
4.486586728977044913e+03 5.623413251903491172e+00
4.824950013161143033e+03 1.000000000000000000e+01
5.233709957566486082e+03 1.778279410038922848e+01
5.745281865243122411e+03 3.162277660168379256e+01
6.417859950947138714e+03 5.623413251903490817e+01
7.355336436133574352e+03 1.000000000000000000e+02
8.700525410764214030e+03 1.778279410038922776e+02
1.049103957155303578e+04 3.162277660168379612e+02
