# Temperature (K), Pressure (bars)
1.195736386512646050e+03 5.623413251903490700e-05
1.232700962787400840e+03 1.000000000000000048e-04
1.269665542097656953e+03 1.778279410038922698e-04
1.312850807428922053e+03 3.162277660168379394e-04
1.362048776994985246e+03 5.623413251903490971e-04
1.414264625912536303e+03 1.000000000000000021e-03
1.474789577519860813e+03 1.778279410038922752e-03
1.552875981648707921e+03 3.162277660168379394e-03
1.632942700535972335e+03 5.623413251903490971e-03
1.702757775957746162e+03 1.000000000000000021e-02
1.773157730984546561e+03 1.778279410038922925e-02
1.849859599594454039e+03 3.162277660168379134e-02
1.940300735615093117e+03 5.623413251903491145e-02
2.045693606813433689e+03 1.000000000000000056e-01
2.186977926635539916e+03 1.778279410038922925e-01
2.389860005929896943e+03 3.162277660168379412e-01
2.609671934055598740e+03 5.623413251903490728e-01
2.814830737493409742e+03 1.000000000000000000e+00
3.019432481019974603e+03 1.778279410038922759e+00
3.228939832956575174e+03 3.162277660168379523e+00
3.447008954754694514e+03 5.623413251903491172e+00
3.677842733838620006e+03 1.000000000000000000e+01
3.926668745363827838e+03 1.778279410038922848e+01
4.201075121157829017e+03 3.162277660168379256e+01
4.506832828314864855e+03 5.623413251903490817e+01
4.851796633440451842e+03 1.000000000000000000e+02
5.239500186809584193e+03 1.778279410038922776e+02
5.694961418743569993e+03 3.162277660168379612e+02
