# Temperature (K), Pressure (bars)
9.314911256116180311e+02 1.000000000000000021e-03
9.716458034342203973e+02 1.778279410038922752e-03
1.011800481517773164e+03 3.162277660168379394e-03
1.050944412462773698e+03 5.623413251903490971e-03
1.090973073440890175e+03 1.000000000000000021e-02
1.132496592291682646e+03 1.778279410038922925e-02
1.175654518629263521e+03 3.162277660168379134e-02
1.221961635826653719e+03 5.623413251903491145e-02
1.272730288934702457e+03 1.000000000000000056e-01
1.335234513131969379e+03 1.778279410038922925e-01
1.423555404034882713e+03 3.162277660168379412e-01
1.547123109648566242e+03 5.623413251903490728e-01
1.709131643134410751e+03 1.000000000000000000e+00
1.929440937171420273e+03 1.778279410038922759e+00
2.211225523954026357e+03 3.162277660168379523e+00
2.507071960181631312e+03 5.623413251903491172e+00
2.790914599382772394e+03 1.000000000000000000e+01
3.070141226591892064e+03 1.778279410038922848e+01
3.351676573183603068e+03 3.162277660168379256e+01
3.642027071698487362e+03 5.623413251903490817e+01
3.949068780787060405e+03 1.000000000000000000e+02
4.277244150294869542e+03 1.778279410038922776e+02
4.641715556260242920e+03 3.162277660168379612e+02
