# Temperature (K), Pressure (bars)
4.411414149907358478e+03 9.999999999999999547e-07
5.338607529900039481e+03 1.778279410038922901e-06
6.459318842919517920e+03 3.162277660168379191e-06
7.735350981185179990e+03 5.623413251903491208e-06
9.090077688347926596e+03 1.000000000000000082e-05
1.041870223502140470e+04 1.778279410038922901e-05
1.163127121319794060e+04 3.162277660168379530e-05
1.268910482315637455e+04 5.623413251903490700e-05
1.360349809108927730e+04 1.000000000000000048e-04
1.441273165547025383e+04 1.778279410038922698e-04
1.515841231847376548e+04 3.162277660168379394e-04
1.587550363011456466e+04 5.623413251903490971e-04
1.659191035103585818e+04 1.000000000000000021e-03
1.732883784750995255e+04 1.778279410038922752e-03
1.810668152322926107e+04 3.162277660168379394e-03
1.894480343096141587e+04 5.623413251903490971e-03
1.986577830710680064e+04 1.000000000000000021e-02
2.089844971928159066e+04 1.778279410038922925e-02
2.207903034250958808e+04 3.162277660168379134e-02
2.345512819374681931e+04 5.623413251903491145e-02
2.509060384160901958e+04 1.000000000000000056e-01
2.706771584050957608e+04 1.778279410038922925e-01
2.949521315726382818e+04 3.162277660168379412e-01
3.251362084964050518e+04 5.623413251903490728e-01
3.630076554530726571e+04 1.000000000000000000e+00
4.108663882462047332e+04 1.778279410038922759e+00
4.715644127213767933e+04 3.162277660168379523e+00
5.487023139433193137e+04 5.623413251903491172e+00
6.466664671970296331e+04 1.000000000000000000e+01
7.708269286408493645e+04 1.778279410038922848e+01
9.276012975243027904e+04 3.162277660168379256e+01
1.124214292360545805e+05 5.623413251903490817e+01
1.368061836489838606e+05 1.000000000000000000e+02
1.665642519972572918e+05 1.778279410038922776e+02
2.020790227276886872e+05 3.162277660168379612e+02
