# Temperature (K), Pressure (bars)
7.853342694077173292e+02 9.999999999999999547e-07
8.104835800849231191e+02 1.778279410038922901e-06
8.356328907857450758e+02 3.162277660168379191e-06
8.640598025678805243e+02 5.623413251903491208e-06
8.970819468494278226e+02 1.000000000000000082e-05
9.336271413753665911e+02 1.778279410038922901e-05
9.732581792572852919e+02 3.162277660168379530e-05
1.016289478228443159e+03 5.623413251903490700e-05
1.062204525704037223e+03 1.000000000000000048e-04
1.110937855860546961e+03 1.778279410038922698e-04
1.163136643057750689e+03 3.162277660168379394e-04
1.219740310903041063e+03 5.623413251903490971e-04
1.282719562647816929e+03 1.000000000000000021e-03
1.354012883509329640e+03 1.778279410038922752e-03
1.438011469247114292e+03 3.162277660168379394e-03
1.536627707203915406e+03 5.623413251903490971e-03
1.675241701441213536e+03 1.000000000000000021e-02
1.881107709304838409e+03 1.778279410038922925e-02
2.113965784380584864e+03 3.162277660168379134e-02
2.329262117465027586e+03 5.623413251903491145e-02
2.525648018260386380e+03 1.000000000000000056e-01
2.710057708793348866e+03 1.778279410038922925e-01
2.889199141639045138e+03 3.162277660168379412e-01
3.068074597574524887e+03 5.623413251903490728e-01
3.251044186199806063e+03 1.000000000000000000e+00
3.442599115756904666e+03 1.778279410038922759e+00
3.647257766960269691e+03 3.162277660168379523e+00
3.869595645180690553e+03 5.623413251903491172e+00
4.114613628297889591e+03 1.000000000000000000e+01
4.388213403781226589e+03 1.778279410038922848e+01
4.697848643768229522e+03 3.162277660168379256e+01
5.053740310118176239e+03 5.623413251903490817e+01
5.473997479591106639e+03 1.000000000000000000e+02
5.973265695182727541e+03 1.778279410038922776e+02
6.578687656000754941e+03 3.162277660168379612e+02
