# Temperature (K), Pressure (bars)
9.149987579482802857e+02 3.162277660168379530e-05
9.676429212401503719e+02 5.623413251903490700e-05
1.020287086428964813e+03 1.000000000000000048e-04
1.071515565839557894e+03 1.778279410038922698e-04
1.122949740641911148e+03 3.162277660168379394e-04
1.175815030774022262e+03 5.623413251903490971e-04
1.231138563742738143e+03 1.000000000000000021e-03
1.289506605122732481e+03 1.778279410038922752e-03
1.353858071349649890e+03 3.162277660168379394e-03
1.430868840260080788e+03 5.623413251903490971e-03
1.525678691133958409e+03 1.000000000000000021e-02
1.642577999140462225e+03 1.778279410038922925e-02
1.780417267369618685e+03 3.162277660168379134e-02
1.957951909572651402e+03 5.623413251903491145e-02
2.183634980982953948e+03 1.000000000000000056e-01
2.409185837442326374e+03 1.778279410038922925e-01
2.611699378482643624e+03 3.162277660168379412e-01
2.806283517515055792e+03 5.623413251903490728e-01
2.999306738271642189e+03 1.000000000000000000e+00
3.195241777240260944e+03 1.778279410038922759e+00
3.398455052494864958e+03 3.162277660168379523e+00
3.613698965909481558e+03 5.623413251903491172e+00
3.845873768532929716e+03 1.000000000000000000e+01
4.100311337129954154e+03 1.778279410038922848e+01
4.385363109785046618e+03 3.162277660168379256e+01
4.706715759585410524e+03 5.623413251903490817e+01
5.073475875171675398e+03 1.000000000000000000e+02
5.490141573873240304e+03 1.778279410038922776e+02
5.986405709184611624e+03 3.162277660168379612e+02
