# Temperature (K), Pressure (bars)
8.726257649750604060e+02 3.162277660168379394e-04
9.119784616162811517e+02 5.623413251903490971e-04
9.513311590940058977e+02 1.000000000000000021e-03
9.921945717126238833e+02 1.778279410038922752e-03
1.035440721954961418e+03 3.162277660168379394e-03
1.079925963938492487e+03 5.623413251903490971e-03
1.125634904096739547e+03 1.000000000000000021e-02
1.173357825668405894e+03 1.778279410038922925e-02
1.227523955254692737e+03 3.162277660168379134e-02
1.289028083369233855e+03 5.623413251903491145e-02
1.385168974430843946e+03 1.000000000000000056e-01
1.566391472704834086e+03 1.778279410038922925e-01
1.816516015450268469e+03 3.162277660168379412e-01
2.083958823454340290e+03 5.623413251903490728e-01
2.348357246303537522e+03 1.000000000000000000e+00
2.602559033046723016e+03 1.778279410038922759e+00
2.845591763111405271e+03 3.162277660168379523e+00
3.082792747349633828e+03 5.623413251903491172e+00
3.321497934221647483e+03 1.000000000000000000e+01
3.569023463386210096e+03 1.778279410038922848e+01
3.834127471595824318e+03 3.162277660168379256e+01
4.121860120959147935e+03 5.623413251903490817e+01
4.438927935936610083e+03 1.000000000000000000e+02
4.788493953696863173e+03 1.778279410038922776e+02
5.189080802055836102e+03 3.162277660168379612e+02
