# Temperature (K), Pressure (bars)
1.840235225985338275e+03 1.000000000000000082e-05
1.848927981431410672e+03 1.778279410038922901e-05
1.857620740346952743e+03 3.162277660168379530e-05
1.873258777184000110e+03 5.623413251903490700e-05
1.897289862320046268e+03 1.000000000000000048e-04
1.928621511256222220e+03 1.778279410038922698e-04
1.965741019493227441e+03 3.162277660168379394e-04
2.009304657667795027e+03 5.623413251903490971e-04
2.057217525028931050e+03 1.000000000000000021e-03
2.104821063877366669e+03 1.778279410038922752e-03
2.150314546063293164e+03 3.162277660168379394e-03
2.192673880773081692e+03 5.623413251903490971e-03
2.230532324717153188e+03 1.000000000000000021e-02
2.265458289342831904e+03 1.778279410038922925e-02
2.299762143066155659e+03 3.162277660168379134e-02
2.343437686025315998e+03 5.623413251903491145e-02
2.400385004451323312e+03 1.000000000000000056e-01
2.483804056055825640e+03 1.778279410038922925e-01
2.623076914260814647e+03 3.162277660168379412e-01
2.799443687341207351e+03 5.623413251903490728e-01
2.983263512986537080e+03 1.000000000000000000e+00
3.175984064272919113e+03 1.778279410038922759e+00
3.380766908967416384e+03 3.162277660168379523e+00
3.599574256946309561e+03 5.623413251903491172e+00
3.835074479205379703e+03 1.000000000000000000e+01
4.091767847641155186e+03 1.778279410038922848e+01
4.376956858419307537e+03 3.162277660168379256e+01
4.698049842685260046e+03 5.623413251903490817e+01
5.064228469599644086e+03 1.000000000000000000e+02
5.480352607043014359e+03 1.778279410038922776e+02
5.975157972328506730e+03 3.162277660168379612e+02
