# Temperature (K), Pressure (bars)
2.387939865655729136e+03 9.999999999999999547e-07
2.404453885587949571e+03 1.778279410038922901e-06
2.420967905520169552e+03 3.162277660168379191e-06
2.447320596498645045e+03 5.623413251903491208e-06
2.481421646922548916e+03 1.000000000000000082e-05
2.517156585528895903e+03 1.778279410038922901e-05
2.554392480555893144e+03 3.162277660168379530e-05
2.595459430727633389e+03 5.623413251903490700e-05
2.640261980641275841e+03 1.000000000000000048e-04
2.688205389610204293e+03 1.778279410038922698e-04
2.738998282232635120e+03 3.162277660168379394e-04
2.791601285406130501e+03 5.623413251903490971e-04
2.843411231628834685e+03 1.000000000000000021e-03
2.890575606602041717e+03 1.778279410038922752e-03
2.929936505449862580e+03 3.162277660168379394e-03
2.963732978439198178e+03 5.623413251903490971e-03
3.000184847223503311e+03 1.000000000000000021e-02
3.051409570088630062e+03 1.778279410038922925e-02
3.117049013018828191e+03 3.162277660168379134e-02
3.201586360674997650e+03 5.623413251903491145e-02
3.330926275746499414e+03 1.000000000000000056e-01
3.506617777197638134e+03 1.778279410038922925e-01
3.719047504173812740e+03 3.162277660168379412e-01
3.986069129711437654e+03 5.623413251903490728e-01
4.274296103844989375e+03 1.000000000000000000e+00
4.639572209159749036e+03 1.778279410038922759e+00
5.143258594112460742e+03 3.162277660168379523e+00
5.918694586332298059e+03 5.623413251903491172e+00
7.140441631799201787e+03 1.000000000000000000e+01
8.782842225811004027e+03 1.778279410038922848e+01
1.000000000000000000e+04 3.162277660168379256e+01
1.000000000000000000e+04 5.623413251903490817e+01
1.000000000000000000e+04 1.000000000000000000e+02
1.000000000000000000e+04 1.778279410038922776e+02
1.000000000000000000e+04 3.162277660168379612e+02
