# Temperature (K), Pressure (bars)
1.231548692907420900e+03 1.000000000000000048e-04
1.262355930055750150e+03 1.778279410038922698e-04
1.293163170525513806e+03 3.162277660168379394e-04
1.329135947608965807e+03 5.623413251903490971e-04
1.370778392650103115e+03 1.000000000000000021e-03
1.415437743291733796e+03 1.778279410038922752e-03
1.469746950839456076e+03 3.162277660168379394e-03
1.545393965065943803e+03 5.623413251903490971e-03
1.622548374538214148e+03 1.000000000000000021e-02
1.684464450784555993e+03 1.778279410038922925e-02
1.742680588535939933e+03 3.162277660168379134e-02
1.806567095019400767e+03 5.623413251903491145e-02
1.877065600179712646e+03 1.000000000000000056e-01
1.960412387626137388e+03 1.778279410038922925e-01
2.062883395948363614e+03 3.162277660168379412e-01
2.195789727343584673e+03 5.623413251903490728e-01
2.390027924819906730e+03 1.000000000000000000e+00
2.634373355225548039e+03 1.778279410038922759e+00
2.879091783960381235e+03 3.162277660168379523e+00
3.114132807492600932e+03 5.623413251903491172e+00
3.352680947633563392e+03 1.000000000000000000e+01
3.601051577508270384e+03 1.778279410038922848e+01
3.866623537775999921e+03 3.162277660168379256e+01
4.155472745489650151e+03 5.623413251903490817e+01
4.474442443436881149e+03 1.000000000000000000e+02
4.826762528643879705e+03 1.778279410038922776e+02
5.231367313624838062e+03 3.162277660168379612e+02
