# Temperature (K), Pressure (bars)
2.437569819054126583e+03 9.999999999999999547e-07
2.450622185708201414e+03 1.778279410038922901e-06
2.463674552362276700e+03 3.162277660168379191e-06
2.493825567728689293e+03 5.623413251903491208e-06
2.525592627788423670e+03 1.000000000000000082e-05
2.557373118723156040e+03 1.778279410038922901e-05
2.592568648615644179e+03 3.162277660168379530e-05
2.629184944870639811e+03 5.623413251903490700e-05
2.668629709870284842e+03 1.000000000000000048e-04
2.710737061676667054e+03 1.778279410038922698e-04
2.754540187433895881e+03 3.162277660168379394e-04
2.798308625038919672e+03 5.623413251903490971e-04
2.838285347325415387e+03 1.000000000000000021e-03
2.869668854539053882e+03 1.778279410038922752e-03
2.892679970878673430e+03 3.162277660168379394e-03
2.917958724471199275e+03 5.623413251903490971e-03
2.958074873037484394e+03 1.000000000000000021e-02
3.020015446722952220e+03 1.778279410038922925e-02
3.097646120616294411e+03 3.162277660168379134e-02
3.193119747851870670e+03 5.623413251903491145e-02
3.328951501707026637e+03 1.000000000000000056e-01
3.506107093577817523e+03 1.778279410038922925e-01
3.709864124433398956e+03 3.162277660168379412e-01
3.950581130380172908e+03 5.623413251903490728e-01
4.230937566447903919e+03 1.000000000000000000e+00
4.576635131979288417e+03 1.778279410038922759e+00
5.040043381745909755e+03 3.162277660168379523e+00
5.729850438550082799e+03 5.623413251903491172e+00
6.828607183360789350e+03 1.000000000000000000e+01
8.385993868116165686e+03 1.778279410038922848e+01
1.000000000000000000e+04 3.162277660168379256e+01
1.000000000000000000e+04 5.623413251903490817e+01
1.000000000000000000e+04 1.000000000000000000e+02
1.000000000000000000e+04 1.778279410038922776e+02
1.000000000000000000e+04 3.162277660168379612e+02
