# Temperature (K), Pressure (bars)
2.413436634878126370e+03 9.999999999999999547e-07
2.434818778647291310e+03 1.778279410038922901e-06
2.456200922416456251e+03 3.162277660168379191e-06
2.484679823411756843e+03 5.623413251903491208e-06
2.514120812077959272e+03 1.000000000000000082e-05
2.543404755362748801e+03 1.778279410038922901e-05
2.573197978427430371e+03 3.162277660168379530e-05
2.602766814415065255e+03 5.623413251903490700e-05
2.631884573144820024e+03 1.000000000000000048e-04
2.658334130737252053e+03 1.778279410038922698e-04
2.678837765799870340e+03 3.162277660168379394e-04
2.690585973053644011e+03 5.623413251903490971e-04
2.697714334640331344e+03 1.000000000000000021e-03
2.712618972868447145e+03 1.778279410038922752e-03
2.745817332412444102e+03 3.162277660168379394e-03
2.798624597950815314e+03 5.623413251903490971e-03
2.869385956755251300e+03 1.000000000000000021e-02
2.956632600673442994e+03 1.778279410038922925e-02
3.064000306145651848e+03 3.162277660168379134e-02
3.199021708997885071e+03 5.623413251903491145e-02
3.359852149576844113e+03 1.000000000000000056e-01
3.547418137450465565e+03 1.778279410038922925e-01
3.760556299816937099e+03 3.162277660168379412e-01
4.016108327382120933e+03 5.623413251903490728e-01
4.313391793854545540e+03 1.000000000000000000e+00
4.697591870067434684e+03 1.778279410038922759e+00
5.243263628906417580e+03 3.162277660168379523e+00
6.104080088083889677e+03 5.623413251903491172e+00
7.436045590296017508e+03 1.000000000000000000e+01
9.141407174200710870e+03 1.778279410038922848e+01
1.000000000000000000e+04 3.162277660168379256e+01
1.000000000000000000e+04 5.623413251903490817e+01
1.000000000000000000e+04 1.000000000000000000e+02
1.000000000000000000e+04 1.778279410038922776e+02
1.000000000000000000e+04 3.162277660168379612e+02
