# Temperature (K), Pressure (bars)
1.284128856932855342e+03 9.999999999999999547e-07
1.348428140093309821e+03 1.778279410038922901e-06
1.412727423253892539e+03 3.162277660168379191e-06
1.471232357387719276e+03 5.623413251903491208e-06
1.542070489816050667e+03 1.000000000000000082e-05
1.619188141695086642e+03 1.778279410038922901e-05
1.686213491212529789e+03 3.162277660168379530e-05
1.747357684973133246e+03 5.623413251903490700e-05
1.812100571852908615e+03 1.000000000000000048e-04
1.879489426807880136e+03 1.778279410038922698e-04
1.948432670596189382e+03 3.162277660168379394e-04
2.022240372894472102e+03 5.623413251903490971e-04
2.105955771666339388e+03 1.000000000000000021e-03
2.207542126697296226e+03 1.778279410038922752e-03
2.325842232499092916e+03 3.162277660168379394e-03
2.453092561127663430e+03 5.623413251903490971e-03
2.586647417309838602e+03 1.000000000000000021e-02
2.727673604144853016e+03 1.778279410038922925e-02
2.878453580891169622e+03 3.162277660168379134e-02
3.041954086386390372e+03 5.623413251903491145e-02
3.221095858761186719e+03 1.000000000000000056e-01
3.417973555108676010e+03 1.778279410038922925e-01
3.634972611319876705e+03 3.162277660168379412e-01
3.877913881911254066e+03 5.623413251903490728e-01
4.159431738925727586e+03 1.000000000000000000e+00
4.475592058469293988e+03 1.778279410038922759e+00
4.880204660186294859e+03 3.162277660168379523e+00
5.437117137493058181e+03 5.623413251903491172e+00
6.250958125138216019e+03 1.000000000000000000e+01
7.471884622507093809e+03 1.778279410038922848e+01
9.160650994630037530e+03 3.162277660168379256e+01
1.116209179527097149e+04 5.623413251903490817e+01
1.357697187159117857e+04 1.000000000000000000e+02
1.652405273989677880e+04 1.778279410038922776e+02
2.003637052785121341e+04 3.162277660168379612e+02
