# Temperature (K), Pressure (bars)
2.310204179692772868e+03 9.999999999999999547e-07
2.329149624668617889e+03 1.778279410038922901e-06
2.348095069644463820e+03 3.162277660168379191e-06
2.375281893147344363e+03 5.623413251903491208e-06
2.406840961888234688e+03 1.000000000000000082e-05
2.440162477565444533e+03 1.778279410038922901e-05
2.476589326817227629e+03 3.162277660168379530e-05
2.515596233455669790e+03 5.623413251903490700e-05
2.556671008389435428e+03 1.000000000000000048e-04
2.599826552206419365e+03 1.778279410038922698e-04
2.644096552158183385e+03 3.162277660168379394e-04
2.687045631467172825e+03 5.623413251903490971e-04
2.725463607028312254e+03 1.000000000000000021e-03
2.757250152210568103e+03 1.778279410038922752e-03
2.783599894657884761e+03 3.162277660168379394e-03
2.810830261437299669e+03 5.623413251903490971e-03
2.845408217614137811e+03 1.000000000000000021e-02
2.894649180989159504e+03 1.778279410038922925e-02
2.956727659733089240e+03 3.162277660168379134e-02
3.040639261625725794e+03 5.623413251903491145e-02
3.169545267655889802e+03 1.000000000000000056e-01
3.330981545024992101e+03 1.778279410038922925e-01
3.511860942106286984e+03 3.162277660168379412e-01
3.721432950316238475e+03 5.623413251903490728e-01
3.965532586486204309e+03 1.000000000000000000e+00
4.252700543559754806e+03 1.778279410038922759e+00
4.569839684310940356e+03 3.162277660168379523e+00
4.963844838486097615e+03 5.623413251903491172e+00
5.482424698645111675e+03 1.000000000000000000e+01
6.222967229164620221e+03 1.778279410038922848e+01
7.351378307612520075e+03 3.162277660168379256e+01
8.955360938999881910e+03 5.623413251903490817e+01
1.000000000000000000e+04 1.000000000000000000e+02
1.000000000000000000e+04 1.778279410038922776e+02
1.000000000000000000e+04 3.162277660168379612e+02
