# Temperature (K), Pressure (bars)
9.439181087001965125e+02 3.162277660168379394e-04
9.987257082379314852e+02 5.623413251903490971e-04
1.053533309320698663e+03 1.000000000000000021e-03
1.106815334038386709e+03 1.778279410038922752e-03
1.159402415489764962e+03 3.162277660168379394e-03
1.213099483297811730e+03 5.623413251903490971e-03
1.268747524600333463e+03 1.000000000000000021e-02
1.329264735669013135e+03 1.778279410038922925e-02
1.398456538914070052e+03 3.162277660168379134e-02
1.483712254412733955e+03 5.623413251903491145e-02
1.594199925678802856e+03 1.000000000000000056e-01
1.757537338173297940e+03 1.778279410038922925e-01
1.991599403404322175e+03 3.162277660168379412e-01
2.252166446108241871e+03 5.623413251903490728e-01
2.500453214336309884e+03 1.000000000000000000e+00
2.736579793725102263e+03 1.778279410038922759e+00
2.965429945856700215e+03 3.162277660168379523e+00
3.193608504295808416e+03 5.623413251903491172e+00
3.427474595196069004e+03 1.000000000000000000e+01
3.673240195584843150e+03 1.778279410038922848e+01
3.939006193464046646e+03 3.162277660168379256e+01
4.229872162790300536e+03 5.623413251903490817e+01
4.552620872684423375e+03 1.000000000000000000e+02
4.910735031515586343e+03 1.778279410038922776e+02
5.323520484387199758e+03 3.162277660168379612e+02
