# Temperature (K), Pressure (bars)
9.682992131873304515e+02 3.162277660168379394e-03
9.956538563987720636e+02 5.623413251903490971e-03
1.023008498616713723e+03 1.000000000000000021e-02
1.045884300904642942e+03 1.778279410038922925e-02
1.068347857044527473e+03 3.162277660168379134e-02
1.095301553287545403e+03 5.623413251903491145e-02
1.128346561984192249e+03 1.000000000000000056e-01
1.168390720925224059e+03 1.778279410038922925e-01
1.217842529152851284e+03 3.162277660168379412e-01
1.279304615547177036e+03 5.623413251903490728e-01
1.357294017233476552e+03 1.000000000000000000e+00
1.461389033433010354e+03 1.778279410038922759e+00
1.595216126164497609e+03 3.162277660168379523e+00
1.774620388790123116e+03 5.623413251903491172e+00
2.024305757077802355e+03 1.000000000000000000e+01
2.328191949767717233e+03 1.778279410038922848e+01
2.646121742615178391e+03 3.162277660168379256e+01
2.969090726126105437e+03 5.623413251903490817e+01
3.296905692264131631e+03 1.000000000000000000e+02
3.631544983677759774e+03 1.778279410038922776e+02
3.984382621025376920e+03 3.162277660168379612e+02
