# Temperature (K), Pressure (bars)
9.996130420814137096e+02 3.162277660168379394e-03
1.051288461610744207e+03 5.623413251903490971e-03
1.102963882537542531e+03 1.000000000000000021e-02
1.152397830433655599e+03 1.778279410038922925e-02
1.201374519828724488e+03 3.162277660168379134e-02
1.252302378462188926e+03 5.623413251903491145e-02
1.307080193389633450e+03 1.000000000000000056e-01
1.371370125667447837e+03 1.778279410038922925e-01
1.457507486773826258e+03 3.162277660168379412e-01
1.575008564332889136e+03 5.623413251903490728e-01
1.727497782985644108e+03 1.000000000000000000e+00
1.909256135431411394e+03 1.778279410038922759e+00
2.138106156487953285e+03 3.162277660168379523e+00
2.427147539396752109e+03 5.623413251903491172e+00
2.727373426221094178e+03 1.000000000000000000e+01
3.012291526796013386e+03 1.778279410038922848e+01
3.297642043378940343e+03 3.162277660168379256e+01
3.590126031833717207e+03 5.623413251903490817e+01
3.897727072115832925e+03 1.000000000000000000e+02
4.225286404850277904e+03 1.778279410038922776e+02
4.587562085619447316e+03 3.162277660168379612e+02
