# Temperature (K), Pressure (bars)
2.467068002164972313e+03 3.162277660168379191e-06
2.480116850726438770e+03 5.623413251903491208e-06
2.493165708693588385e+03 1.000000000000000082e-05
2.514998575573556536e+03 1.778279410038922901e-05
2.545169779800013657e+03 3.162277660168379530e-05
2.579905832198298867e+03 5.623413251903490700e-05
2.617886573644680539e+03 1.000000000000000048e-04
2.659377478464415617e+03 1.778279410038922698e-04
2.704217095029675420e+03 3.162277660168379394e-04
2.752573050464972766e+03 5.623413251903490971e-04
2.805318939387690534e+03 1.000000000000000021e-03
2.862212978771737653e+03 1.778279410038922752e-03
2.921248139845376045e+03 3.162277660168379394e-03
2.979291359114681200e+03 5.623413251903490971e-03
3.032044109043110893e+03 1.000000000000000021e-02
3.076874112455840987e+03 1.778279410038922925e-02
3.116151626557238160e+03 3.162277660168379134e-02
3.161175734762684897e+03 5.623413251903491145e-02
3.219704196966773452e+03 1.000000000000000056e-01
3.318938287231766935e+03 1.778279410038922925e-01
3.485859272743884503e+03 3.162277660168379412e-01
3.690556868826891787e+03 5.623413251903490728e-01
3.917689220331035813e+03 1.000000000000000000e+00
4.185891700959106856e+03 1.778279410038922759e+00
4.508050817437856495e+03 3.162277660168379523e+00
4.878455632247162612e+03 5.623413251903491172e+00
5.353571960017674428e+03 1.000000000000000000e+01
6.007740355531372188e+03 1.778279410038922848e+01
6.982175413904031302e+03 3.162277660168379256e+01
8.421362208989043211e+03 5.623413251903490817e+01
1.000000000000000000e+04 1.000000000000000000e+02
1.000000000000000000e+04 1.778279410038922776e+02
1.000000000000000000e+04 3.162277660168379612e+02
