# Temperature (K), Pressure (bars)
1.880421329105010955e+03 9.999999999999999547e-07
1.887433384134645621e+03 1.778279410038922901e-06
1.894445439164280288e+03 3.162277660168379191e-06
1.906087690662851401e+03 5.623413251903491208e-06
1.922819853968154348e+03 1.000000000000000082e-05
1.944109979561091222e+03 1.778279410038922901e-05
1.971283283153512002e+03 3.162277660168379530e-05
2.006642173034455482e+03 5.623413251903490700e-05
2.049878040476864044e+03 1.000000000000000048e-04
2.099048942162159619e+03 1.778279410038922698e-04
2.152931142104160244e+03 3.162277660168379394e-04
2.210999990646487277e+03 5.623413251903490971e-04
2.273620082448430367e+03 1.000000000000000021e-03
2.343422419518766219e+03 1.778279410038922752e-03
2.426938100856878918e+03 3.162277660168379394e-03
2.526626920933233123e+03 5.623413251903490971e-03
2.637826842645107718e+03 1.000000000000000021e-02
2.758311203975005810e+03 1.778279410038922925e-02
2.889440239682848642e+03 3.162277660168379134e-02
3.032802686300249661e+03 5.623413251903491145e-02
3.190632867082452321e+03 1.000000000000000056e-01
3.366171200363763091e+03 1.778279410038922925e-01
3.563901404453976284e+03 3.162277660168379412e-01
3.789370917208142146e+03 5.623413251903490728e-01
4.049972659160516287e+03 1.000000000000000000e+00
4.358301148148644643e+03 1.778279410038922759e+00
4.711030235347340749e+03 3.162277660168379523e+00
5.169814399464339658e+03 5.623413251903491172e+00
5.815089469759926942e+03 1.000000000000000000e+01
6.773759648465285863e+03 1.778279410038922848e+01
8.196452503000462457e+03 3.162277660168379256e+01
1.002295443755048109e+04 5.623413251903490817e+01
1.219379398372354444e+04 1.000000000000000000e+02
1.484251536082349594e+04 1.778279410038922776e+02
1.799963189445661919e+04 3.162277660168379612e+02
