# Temperature (K), Pressure (bars)
1.146126514112620498e+03 9.999999999999999547e-07
1.162103653378897434e+03 1.778279410038922901e-06
1.178080792672897587e+03 3.162277660168379191e-06
1.200558216060775976e+03 5.623413251903491208e-06
1.229901785738031094e+03 1.000000000000000082e-05
1.265663159792985425e+03 1.778279410038922901e-05
1.308297214353712207e+03 3.162277660168379530e-05
1.356891825958856771e+03 5.623413251903490700e-05
1.412567942213862580e+03 1.000000000000000048e-04
1.474641099034497302e+03 1.778279410038922698e-04
1.544864400709035635e+03 3.162277660168379394e-04
1.627526510405727549e+03 5.623413251903490971e-04
1.715118086541728644e+03 1.000000000000000021e-03
1.804849495980042775e+03 1.778279410038922752e-03
1.898344038675357069e+03 3.162277660168379394e-03
2.011243847130107042e+03 5.623413251903490971e-03
2.163100614414601296e+03 1.000000000000000021e-02
2.329285502859647750e+03 1.778279410038922925e-02
2.489002587912900708e+03 3.162277660168379134e-02
2.648286572474286004e+03 5.623413251903491145e-02
2.810212184145992524e+03 1.000000000000000056e-01
2.977413721485055703e+03 1.778279410038922925e-01
3.151940792789967418e+03 3.162277660168379412e-01
3.335207387665910574e+03 5.623413251903490728e-01
3.529099059854858751e+03 1.000000000000000000e+00
3.737221906911340739e+03 1.778279410038922759e+00
3.964636517622952852e+03 3.162277660168379523e+00
4.217433849327717326e+03 5.623413251903491172e+00
4.503235066233183716e+03 1.000000000000000000e+01
4.832474463952727092e+03 1.778279410038922848e+01
5.222533999494404270e+03 3.162277660168379256e+01
5.693045565041056761e+03 5.623413251903490817e+01
6.277478237103746324e+03 1.000000000000000000e+02
7.030720603751783528e+03 1.778279410038922776e+02
8.043896607988139294e+03 3.162277660168379612e+02
