# Temperature (K), Pressure (bars)
1.694407215760964846e+03 5.623413251903491208e-06
1.726302178229475658e+03 1.000000000000000082e-05
1.758197150149919025e+03 1.778279410038922901e-05
1.793809164197413111e+03 3.162277660168379530e-05
1.833238086258121484e+03 5.623413251903490700e-05
1.876732616953321667e+03 1.000000000000000048e-04
1.924807430063645370e+03 1.778279410038922698e-04
1.974350458376052075e+03 3.162277660168379394e-04
2.023197969636157723e+03 5.623413251903490971e-04
2.068264824025969574e+03 1.000000000000000021e-03
2.107057170230369138e+03 1.778279410038922752e-03
2.140926986745419072e+03 3.162277660168379394e-03
2.171397087136335813e+03 5.623413251903490971e-03
2.200156744327613978e+03 1.000000000000000021e-02
2.229319974926062514e+03 1.778279410038922925e-02
2.262806285680222572e+03 3.162277660168379134e-02
2.303214095624169659e+03 5.623413251903491145e-02
2.357917962549173808e+03 1.000000000000000056e-01
2.426198308496410391e+03 1.778279410038922925e-01
2.525422276847723879e+03 3.162277660168379412e-01
2.687247331687746737e+03 5.623413251903490728e-01
2.881810347537393227e+03 1.000000000000000000e+00
3.078467456791994209e+03 1.778279410038922759e+00
3.284146713781312428e+03 3.162277660168379523e+00
3.501891321560317465e+03 5.623413251903491172e+00
3.734589312313025403e+03 1.000000000000000000e+01
3.986485268922628620e+03 1.778279410038922848e+01
4.264587596710661273e+03 3.162277660168379256e+01
4.575492146372646857e+03 5.623413251903490817e+01
4.927552632603853453e+03 1.000000000000000000e+02
5.324923779812742396e+03 1.778279410038922776e+02
5.792857123449412938e+03 3.162277660168379612e+02
