# Temperature (K), Pressure (bars)
1.119668893971580019e+03 1.000000000000000082e-05
1.160122519337339781e+03 1.778279410038922901e-05
1.201022100135931396e+03 3.162277660168379530e-05
1.244646906261867571e+03 5.623413251903490700e-05
1.292093099952501689e+03 1.000000000000000048e-04
1.343011628853908178e+03 1.778279410038922698e-04
1.397624536245347826e+03 3.162277660168379394e-04
1.456833708677532741e+03 5.623413251903490971e-04
1.521226757739514369e+03 1.000000000000000021e-03
1.592695992238602457e+03 1.778279410038922752e-03
1.675415685618735552e+03 3.162277660168379394e-03
1.774831163441085437e+03 5.623413251903490971e-03
1.908798420554908716e+03 1.000000000000000021e-02
2.083440042447947235e+03 1.778279410038922925e-02
2.268677194097160282e+03 3.162277660168379134e-02
2.444300286837609747e+03 5.623413251903491145e-02
2.614296441520529243e+03 1.000000000000000056e-01
2.783648652747636334e+03 1.778279410038922925e-01
2.956085620437081161e+03 3.162277660168379412e-01
3.134420648550443275e+03 5.623413251903490728e-01
3.320912586260506487e+03 1.000000000000000000e+00
3.517984402684536690e+03 1.778279410038922759e+00
3.729107055007956660e+03 3.162277660168379523e+00
3.958925303057070778e+03 5.623413251903491172e+00
4.212976008521609401e+03 1.000000000000000000e+01
4.497936136991767853e+03 1.778279410038922848e+01
4.822672045926499777e+03 3.162277660168379256e+01
5.202643794306170093e+03 5.623413251903490817e+01
5.650935749082915208e+03 1.000000000000000000e+02
6.190777689894084688e+03 1.778279410038922776e+02
6.855885984329243911e+03 3.162277660168379612e+02
