# Temperature (K), Pressure (bars)
9.806313252703234866e+02 1.000000000000000048e-04
1.028617852545240567e+03 1.778279410038922698e-04
1.076604381602675176e+03 3.162277660168379394e-04
1.125084320488792400e+03 5.623413251903490971e-04
1.174370062477222973e+03 1.000000000000000021e-03
1.226083751206477245e+03 1.778279410038922752e-03
1.280187831207643285e+03 3.162277660168379394e-03
1.336737917109964656e+03 5.623413251903490971e-03
1.397489633188874677e+03 1.000000000000000021e-02
1.465692441179199704e+03 1.778279410038922925e-02
1.550624655645291114e+03 3.162277660168379134e-02
1.664671747103668167e+03 5.623413251903491145e-02
1.820489741867030034e+03 1.000000000000000056e-01
2.030424177736817910e+03 1.778279410038922925e-01
2.274625066543691446e+03 3.162277660168379412e-01
2.510758024806390949e+03 5.623413251903490728e-01
2.729305749715013462e+03 1.000000000000000000e+00
2.941929709699720206e+03 1.778279410038922759e+00
3.155146603415659683e+03 3.162277660168379523e+00
3.374164931882946348e+03 5.623413251903491172e+00
3.604144348536037796e+03 1.000000000000000000e+01
3.850593031859624261e+03 1.778279410038922848e+01
4.121330264612879546e+03 3.162277660168379256e+01
4.421487806887203078e+03 5.623413251903490817e+01
4.758475698757424652e+03 1.000000000000000000e+02
5.136000410301524425e+03 1.778279410038922776e+02
5.576352804213112904e+03 3.162277660168379612e+02
