# Temperature (K), Pressure (bars)
9.761722144319878680e+02 1.000000000000000021e-03
1.020333388063618941e+03 1.778279410038922752e-03
1.064494561979502805e+03 3.162277660168379394e-03
1.107765867692452275e+03 5.623413251903490971e-03
1.150837257559240015e+03 1.000000000000000021e-02
1.196119218596021710e+03 1.778279410038922925e-02
1.244969013499006678e+03 3.162277660168379134e-02
1.298584045302950472e+03 5.623413251903491145e-02
1.360093696245917272e+03 1.000000000000000056e-01
1.444048746419985036e+03 1.778279410038922925e-01
1.577732658929158106e+03 3.162277660168379412e-01
1.756353211590072306e+03 5.623413251903490728e-01
1.961500169017784629e+03 1.000000000000000000e+00
2.207924786594479428e+03 1.778279410038922759e+00
2.486143802384703577e+03 3.162277660168379523e+00
2.760271230789245237e+03 5.623413251903491172e+00
3.023829713977640040e+03 1.000000000000000000e+01
3.286569779049000317e+03 1.778279410038922848e+01
3.557435713648199453e+03 3.162277660168379256e+01
3.843271194607884809e+03 5.623413251903490817e+01
4.151362240465471587e+03 1.000000000000000000e+02
4.485558060172124897e+03 1.778279410038922776e+02
4.861731837433429973e+03 3.162277660168379612e+02
