# Temperature (K), Pressure (bars)
2.415777672917849486e+03 9.999999999999999547e-07
2.440005269314994166e+03 1.778279410038922901e-06
2.464232865712138391e+03 3.162277660168379191e-06
2.491504434388141817e+03 5.623413251903491208e-06
2.523139928328987935e+03 1.000000000000000082e-05
2.556786735947560828e+03 1.778279410038922901e-05
2.591682767633045387e+03 3.162277660168379530e-05
2.629443138831185024e+03 5.623413251903490700e-05
2.671120061647819057e+03 1.000000000000000048e-04
2.716555674484045085e+03 1.778279410038922698e-04
2.765013219301489244e+03 3.162277660168379394e-04
2.815154790933097047e+03 5.623413251903490971e-04
2.863902353354312254e+03 1.000000000000000021e-03
2.907435350220742293e+03 1.778279410038922752e-03
2.943231764113596910e+03 3.162277660168379394e-03
2.973739094581014797e+03 5.623413251903490971e-03
3.007313409186953322e+03 1.000000000000000021e-02
3.055103935553983774e+03 1.778279410038922925e-02
3.121103882794546735e+03 3.162277660168379134e-02
3.209577293376131365e+03 5.623413251903491145e-02
3.337453214370061687e+03 1.000000000000000056e-01
3.509848436620614393e+03 1.778279410038922925e-01
3.713305794773937123e+03 3.162277660168379412e-01
3.954056622411831540e+03 5.623413251903490728e-01
4.235643516009232371e+03 1.000000000000000000e+00
4.583578043545281616e+03 1.778279410038922759e+00
5.051619850476316969e+03 3.162277660168379523e+00
5.750512790733188012e+03 5.623413251903491172e+00
6.864329078744356593e+03 1.000000000000000000e+01
8.433803610855162333e+03 1.778279410038922848e+01
1.000000000000000000e+04 3.162277660168379256e+01
1.000000000000000000e+04 5.623413251903490817e+01
1.000000000000000000e+04 1.000000000000000000e+02
1.000000000000000000e+04 1.778279410038922776e+02
1.000000000000000000e+04 3.162277660168379612e+02
