# Temperature (K), Pressure (bars)
1.925781482849576378e+03 9.999999999999999547e-07
1.927068561410547773e+03 1.778279410038922901e-06
1.928355639971519395e+03 3.162277660168379191e-06
1.935771040979231202e+03 5.623413251903491208e-06
1.948657533265857637e+03 1.000000000000000082e-05
1.966752594456243060e+03 1.778279410038922901e-05
1.991697151385210873e+03 3.162277660168379530e-05
2.024447555882004508e+03 5.623413251903490700e-05
2.063988771630847168e+03 1.000000000000000048e-04
2.108890757525881781e+03 1.778279410038922698e-04
2.158598449825216449e+03 3.162277660168379394e-04
2.212790302420873559e+03 5.623413251903490971e-04
2.272265819348203877e+03 1.000000000000000021e-03
2.339365341237259599e+03 1.778279410038922752e-03
2.420410729343443563e+03 3.162277660168379394e-03
2.519123947254190170e+03 5.623413251903490971e-03
2.630243193525451716e+03 1.000000000000000021e-02
2.750324996993337663e+03 1.778279410038922925e-02
2.880723448520571765e+03 3.162277660168379134e-02
3.022964003697661610e+03 5.623413251903491145e-02
3.179439750403959806e+03 1.000000000000000056e-01
3.353636728352200407e+03 1.778279410038922925e-01
3.549976643637642610e+03 3.162277660168379412e-01
3.773293080113595806e+03 5.623413251903490728e-01
4.029705638843957331e+03 1.000000000000000000e+00
4.330791321601192976e+03 1.778279410038922759e+00
4.673587713649343641e+03 3.162277660168379523e+00
5.113838264453610464e+03 5.623413251903491172e+00
5.723709475300781378e+03 1.000000000000000000e+01
6.639590492590247777e+03 1.778279410038922848e+01
8.023057971166364041e+03 3.162277660168379256e+01
9.819375006383084838e+03 5.623413251903490817e+01
1.195933865000722835e+04 1.000000000000000000e+02
1.456076456573958603e+04 1.778279410038922776e+02
1.766396330744149964e+04 3.162277660168379612e+02
