# Temperature (K), Pressure (bars)
1.399990786992036874e+03 1.778279410038922901e-06
1.419647596885609346e+03 3.162277660168379191e-06
1.443215706079255597e+03 5.623413251903491208e-06
1.473490776681999478e+03 1.000000000000000082e-05
1.514114632393245756e+03 1.778279410038922901e-05
1.566872092650844024e+03 3.162277660168379530e-05
1.629250115135335363e+03 5.623413251903490700e-05
1.694539127402703343e+03 1.000000000000000048e-04
1.761145970351641381e+03 1.778279410038922698e-04
1.832199637189837631e+03 3.162277660168379394e-04
1.908762513935643483e+03 5.623413251903490971e-04
1.991077824871874782e+03 1.000000000000000021e-03
2.087653081247583032e+03 1.778279410038922752e-03
2.206845999117400424e+03 3.162277660168379394e-03
2.338068026780747005e+03 5.623413251903490971e-03
2.471940616947927083e+03 1.000000000000000021e-02
2.610270600223338988e+03 1.778279410038922925e-02
2.754748796661198867e+03 3.162277660168379134e-02
2.907173050907677407e+03 5.623413251903491145e-02
3.069692211039148333e+03 1.000000000000000056e-01
3.244759759782165020e+03 1.778279410038922925e-01
3.434613593428215609e+03 3.162277660168379412e-01
3.641326372863529286e+03 5.623413251903490728e-01
3.868478173147647794e+03 1.000000000000000000e+00
4.122925212149037179e+03 1.778279410038922759e+00
4.415461409436468784e+03 3.162277660168379523e+00
4.754655026762816306e+03 5.623413251903491172e+00
5.174992062209124924e+03 1.000000000000000000e+01
5.723132782334098920e+03 1.778279410038922848e+01
6.484974831938767238e+03 3.162277660168379256e+01
7.605933335901068858e+03 5.623413251903490817e+01
9.211152910205697481e+03 1.000000000000000000e+02
1.121568450499280880e+04 1.778279410038922776e+02
1.360470875547203286e+04 3.162277660168379612e+02
