# Temperature (K), Pressure (bars)
1.148312679989482149e+03 9.999999999999999547e-07
1.149714435610403143e+03 1.778279410038922901e-06
1.151116191234917324e+03 3.162277660168379191e-06
1.159418826503978835e+03 5.623413251903491208e-06
1.175527228312936586e+03 1.000000000000000082e-05
1.199452072768797279e+03 1.778279410038922901e-05
1.230377523880441686e+03 3.162277660168379530e-05
1.267133227825148879e+03 5.623413251903490700e-05
1.309887896917139642e+03 1.000000000000000048e-04
1.358790965452590626e+03 1.778279410038922698e-04
1.415512490704174979e+03 3.162277660168379394e-04
1.476587022203361357e+03 5.623413251903490971e-04
1.546317680840895264e+03 1.000000000000000021e-03
1.632283340823307299e+03 1.778279410038922752e-03
1.720206217558631806e+03 3.162277660168379394e-03
1.800542035946831902e+03 5.623413251903490971e-03
1.884126551609808075e+03 1.000000000000000021e-02
1.975653961202283426e+03 1.778279410038922925e-02
2.092573033321195453e+03 3.162277660168379134e-02
2.256476313228803065e+03 5.623413251903491145e-02
2.439762077105736353e+03 1.000000000000000056e-01
2.616709952321607489e+03 1.778279410038922925e-01
2.792805980002005526e+03 3.162277660168379412e-01
2.972447973274838660e+03 5.623413251903490728e-01
3.158609197535353360e+03 1.000000000000000000e+00
3.353346524257970032e+03 1.778279410038922759e+00
3.559280575707379285e+03 3.162277660168379523e+00
3.780405945105515002e+03 5.623413251903491172e+00
4.021679863275163370e+03 1.000000000000000000e+01
4.288821344395073538e+03 1.778279410038922848e+01
4.588738101966957402e+03 3.162277660168379256e+01
4.930631859286593681e+03 5.623413251903490817e+01
5.331052493578480608e+03 1.000000000000000000e+02
5.802045684425352192e+03 1.778279410038922776e+02
6.366686186848822217e+03 3.162277660168379612e+02
