# Temperature (K), Pressure (bars)
9.119189534373663264e+02 1.000000000000000021e-03
9.576791181872024481e+02 1.778279410038922752e-03
1.003439285165745218e+03 3.162277660168379394e-03
1.049084351021348084e+03 5.623413251903490971e-03
1.095252874503814155e+03 1.000000000000000021e-02
1.142264790398250852e+03 1.778279410038922925e-02
1.190595192706189664e+03 3.162277660168379134e-02
1.242031855513544542e+03 5.623413251903491145e-02
1.299872714398845801e+03 1.000000000000000056e-01
1.369494246718548311e+03 1.778279410038922925e-01
1.460616197300288832e+03 3.162277660168379412e-01
1.585938997035726516e+03 5.623413251903490728e-01
1.748314865405684714e+03 1.000000000000000000e+00
1.946665306555253892e+03 1.778279410038922759e+00
2.195964732193331656e+03 3.162277660168379523e+00
2.487007359753477886e+03 5.623413251903491172e+00
2.778805560674407843e+03 1.000000000000000000e+01
3.059510641911264429e+03 1.778279410038922848e+01
3.341888762215553925e+03 3.162277660168379256e+01
3.632742408532276841e+03 5.623413251903490817e+01
3.939984579826325444e+03 1.000000000000000000e+02
4.268143733663050625e+03 1.778279410038922776e+02
4.632316865449474790e+03 3.162277660168379612e+02
