# Temperature (K), Pressure (bars)
7.847118936872577706e+02 9.999999999999999547e-07
8.109867179412383393e+02 1.778279410038922901e-06
8.372615422145790944e+02 3.162277660168379191e-06
8.668168889296055113e+02 5.623413251903491208e-06
9.009726464010004747e+02 1.000000000000000082e-05
9.385219209801399529e+02 1.778279410038922901e-05
9.791561672752152390e+02 3.162277660168379530e-05
1.023113187129416247e+03 5.623413251903490700e-05
1.069793999837466345e+03 1.000000000000000048e-04
1.119286155060493911e+03 1.778279410038922698e-04
1.172252402743505172e+03 3.162277660168379394e-04
1.229666105271059905e+03 5.623413251903490971e-04
1.293625377945513947e+03 1.000000000000000021e-03
1.366000748394692891e+03 1.778279410038922752e-03
1.452691608947327040e+03 3.162277660168379394e-03
1.557682411983715610e+03 5.623413251903490971e-03
1.702618446173992652e+03 1.000000000000000021e-02
1.909032853330038279e+03 1.778279410038922925e-02
2.137660985955168144e+03 3.162277660168379134e-02
2.348205135030089423e+03 5.623413251903491145e-02
2.541273222474103022e+03 1.000000000000000056e-01
2.723773443156778285e+03 1.778279410038922925e-01
2.901881637995621531e+03 3.162277660168379412e-01
3.080225575514326465e+03 5.623413251903490728e-01
3.263031907469039652e+03 1.000000000000000000e+00
3.454765990026260170e+03 1.778279410038922759e+00
3.659953344456067953e+03 3.162277660168379523e+00
3.883168477487604832e+03 5.623413251903491172e+00
4.129435256279260102e+03 1.000000000000000000e+01
4.404750686313673214e+03 1.778279410038922848e+01
4.716745732481909727e+03 3.162277660168379256e+01
5.075930064287324058e+03 5.623413251903490817e+01
5.500723319275712129e+03 1.000000000000000000e+02
6.006487854532955680e+03 1.778279410038922776e+02
6.621724920355831273e+03 3.162277660168379612e+02
