# Temperature (K), Pressure (bars)
2.140355529543146076e+03 3.162277660168379191e-06
2.155658626529103913e+03 5.623413251903491208e-06
2.170961724894519648e+03 1.000000000000000082e-05
2.186739555579760236e+03 1.778279410038922901e-05
2.204081362094953874e+03 3.162277660168379530e-05
2.225848503093753152e+03 5.623413251903490700e-05
2.254623553027932303e+03 1.000000000000000048e-04
2.291678141279092415e+03 1.778279410038922698e-04
2.337022432878651216e+03 3.162277660168379394e-04
2.388133383495036469e+03 5.623413251903490971e-04
2.441430739433840245e+03 1.000000000000000021e-03
2.493632532769660884e+03 1.778279410038922752e-03
2.541295995442632830e+03 3.162277660168379394e-03
2.583120468865900420e+03 5.623413251903490971e-03
2.619161843914720976e+03 1.000000000000000021e-02
2.655123736700344580e+03 1.778279410038922925e-02
2.694795637644284398e+03 3.162277660168379134e-02
2.756186272544368421e+03 5.623413251903491145e-02
2.865854202172667556e+03 1.000000000000000056e-01
3.007625478922953334e+03 1.778279410038922925e-01
3.161521438220179334e+03 3.162277660168379412e-01
3.331613493998707327e+03 5.623413251903490728e-01
3.520734470104045613e+03 1.000000000000000000e+00
3.730720253460098320e+03 1.778279410038922759e+00
3.963267387585207416e+03 3.162277660168379523e+00
4.222005921566680627e+03 5.623413251903491172e+00
4.513791974576064604e+03 1.000000000000000000e+01
4.849205926784432449e+03 1.778279410038922848e+01
5.243508300421290187e+03 3.162277660168379256e+01
5.720484266033487074e+03 5.623413251903490817e+01
6.315781521922342108e+03 1.000000000000000000e+02
7.088956897152304009e+03 1.778279410038922776e+02
8.135350753734425780e+03 3.162277660168379612e+02
