# Temperature (K), Pressure (bars)
1.634435462030351573e+03 9.999999999999999547e-07
1.653173151941783999e+03 1.778279410038922901e-06
1.671910841853825332e+03 3.162277660168379191e-06
1.699438939966305497e+03 5.623413251903491208e-06
1.735235025616796975e+03 1.000000000000000082e-05
1.775290190571335643e+03 1.778279410038922901e-05
1.819949274423674069e+03 3.162277660168379530e-05
1.865504253553179751e+03 5.623413251903490700e-05
1.908891283658879729e+03 1.000000000000000048e-04
1.951220651933538875e+03 1.778279410038922698e-04
1.994322607033721852e+03 3.162277660168379394e-04
2.040454121991189595e+03 5.623413251903490971e-04
2.090043789498532533e+03 1.000000000000000021e-03
2.144280095050637556e+03 1.778279410038922752e-03
2.204271134320607416e+03 3.162277660168379394e-03
2.275804205118442042e+03 5.623413251903490971e-03
2.371260006182194047e+03 1.000000000000000021e-02
2.489730696169805015e+03 1.778279410038922925e-02
2.619455583498960095e+03 3.162277660168379134e-02
2.756812419933732599e+03 5.623413251903491145e-02
2.903679880286039861e+03 1.000000000000000056e-01
3.062010779510141219e+03 1.778279410038922925e-01
3.233816566784668794e+03 3.162277660168379412e-01
3.420416016244461389e+03 5.623413251903490728e-01
3.622667693413749930e+03 1.000000000000000000e+00
3.842790031746060777e+03 1.778279410038922759e+00
4.085566514728788661e+03 3.162277660168379523e+00
4.358270373556662889e+03 5.623413251903491172e+00
4.670967641386230753e+03 1.000000000000000000e+01
5.037641882762243768e+03 1.778279410038922848e+01
5.480910081913800241e+03 3.162277660168379256e+01
6.034101504250666039e+03 5.623413251903490817e+01
6.754502419985280540e+03 1.000000000000000000e+02
7.741498497711322671e+03 1.778279410038922776e+02
9.134630159616086530e+03 3.162277660168379612e+02
