# Temperature (K), Pressure (bars)
2.062406022135792227e+03 9.999999999999999547e-07
2.097494416607690709e+03 1.778279410038922901e-06
2.132582811079588737e+03 3.162277660168379191e-06
2.170023343941818894e+03 5.623413251903491208e-06
2.211212961231449299e+03 1.000000000000000082e-05
2.255272699547103457e+03 1.778279410038922901e-05
2.301695689518117433e+03 3.162277660168379530e-05
2.348887849290159465e+03 5.623413251903490700e-05
2.394299142767136345e+03 1.000000000000000048e-04
2.437075799900094808e+03 1.778279410038922698e-04
2.477061918652288568e+03 3.162277660168379394e-04
2.514525223240407740e+03 5.623413251903490971e-04
2.551551689004190393e+03 1.000000000000000021e-03
2.591952303539026616e+03 1.778279410038922752e-03
2.639140015827674688e+03 3.162277660168379394e-03
2.694042573576939958e+03 5.623413251903490971e-03
2.752142698811069749e+03 1.000000000000000021e-02
2.808959540767006274e+03 1.778279410038922925e-02
2.888667197142128771e+03 3.162277660168379134e-02
3.015601866134454212e+03 5.623413251903491145e-02
3.173388904058917433e+03 1.000000000000000056e-01
3.351292038974626394e+03 1.778279410038922925e-01
3.555966215136457322e+03 3.162277660168379412e-01
3.783525278257214723e+03 5.623413251903490728e-01
4.040513863665321423e+03 1.000000000000000000e+00
4.342613698608635787e+03 1.778279410038922759e+00
4.689064330781316130e+03 3.162277660168379523e+00
5.135005206974228713e+03 5.623413251903491172e+00
5.754275573068326594e+03 1.000000000000000000e+01
6.691175383372873512e+03 1.778279410038922848e+01
8.098095734555970012e+03 3.162277660168379256e+01
9.907970157599402228e+03 5.623413251903490817e+01
1.000000000000000000e+04 1.000000000000000000e+02
1.000000000000000000e+04 1.778279410038922776e+02
1.000000000000000000e+04 3.162277660168379612e+02
