# Temperature (K), Pressure (bars)
9.749182792338452828e+02 5.623413251903490971e-04
1.030142638138985603e+03 1.000000000000000021e-03
1.085366998475154105e+03 1.778279410038922752e-03
1.139049984969209163e+03 3.162277660168379394e-03
1.192232303510038719e+03 5.623413251903490971e-03
1.246457736683623580e+03 1.000000000000000021e-02
1.303123163797234383e+03 1.778279410038922925e-02
1.366551592799354921e+03 3.162277660168379134e-02
1.440895197868887408e+03 5.623413251903491145e-02
1.538819590641470541e+03 1.000000000000000056e-01
1.679465563295385437e+03 1.778279410038922925e-01
1.882559683050849344e+03 3.162277660168379412e-01
2.142635606837268369e+03 5.623413251903490728e-01
2.408927635554431617e+03 1.000000000000000000e+00
2.655512236324789683e+03 1.778279410038922759e+00
2.892365286452053169e+03 3.162277660168379523e+00
3.126010268571354118e+03 5.623413251903491172e+00
3.363062397195656104e+03 1.000000000000000000e+01
3.610093024410519774e+03 1.778279410038922848e+01
3.875341655569578961e+03 3.162277660168379256e+01
4.164119878854176932e+03 5.623413251903490817e+01
4.483169842511923889e+03 1.000000000000000000e+02
4.835699281874275584e+03 1.778279410038922776e+02
5.240675144404433013e+03 3.162277660168379612e+02
