# Temperature (K), Pressure (bars)
2.255463980305926270e+03 9.999999999999999547e-07
2.257908444295159825e+03 1.778279410038922901e-06
2.260352908298448256e+03 3.162277660168379191e-06
2.270259872446361442e+03 5.623413251903491208e-06
2.283701467503748063e+03 1.000000000000000082e-05
2.295383625411964204e+03 1.778279410038922901e-05
2.303528956379319425e+03 3.162277660168379530e-05
2.309262396518346577e+03 5.623413251903490700e-05
2.316584091482486656e+03 1.000000000000000048e-04
2.328718634080903030e+03 1.778279410038922698e-04
2.346045191973719284e+03 3.162277660168379394e-04
2.367205770858013693e+03 5.623413251903490971e-04
2.390525225759640307e+03 1.000000000000000021e-03
2.414658308180883978e+03 1.778279410038922752e-03
2.439482541687547837e+03 3.162277660168379394e-03
2.465856073100598223e+03 5.623413251903490971e-03
2.495671162498269041e+03 1.000000000000000021e-02
2.530105265164858793e+03 1.778279410038922925e-02
2.573423178312672917e+03 3.162277660168379134e-02
2.626204441107314324e+03 5.623413251903491145e-02
2.701407441802542962e+03 1.000000000000000056e-01
2.822428908604963453e+03 1.778279410038922925e-01
2.975039226806335137e+03 3.162277660168379412e-01
3.139204147510467010e+03 5.623413251903490728e-01
3.317067779097981202e+03 1.000000000000000000e+00
3.511430257337272906e+03 1.778279410038922759e+00
3.724475180664614982e+03 3.162277660168379523e+00
3.958314273591595338e+03 5.623413251903491172e+00
4.216734464212941930e+03 1.000000000000000000e+01
4.506151471900047000e+03 1.778279410038922848e+01
4.835613766075884996e+03 3.162277660168379256e+01
5.219577789766753085e+03 5.623413251903490817e+01
5.673499816166942765e+03 1.000000000000000000e+02
6.221830752242884955e+03 1.778279410038922776e+02
6.901560307522458970e+03 3.162277660168379612e+02
