# Temperature (K), Pressure (bars)
1.726338927396144982e+03 9.999999999999999547e-07
1.727654018074048508e+03 1.778279410038922901e-06
1.728969108998381444e+03 3.162277660168379191e-06
1.734638792301056810e+03 5.623413251903491208e-06
1.745767585393695072e+03 1.000000000000000082e-05
1.761663582210244840e+03 1.778279410038922901e-05
1.782874809119940664e+03 3.162277660168379530e-05
1.811558706691823318e+03 5.623413251903490700e-05
1.845362761331334696e+03 1.000000000000000048e-04
1.882323099796847146e+03 1.778279410038922698e-04
1.923420300743423923e+03 3.162277660168379394e-04
1.967990575112917213e+03 5.623413251903490971e-04
2.016134016038801292e+03 1.000000000000000021e-03
2.068540090672998758e+03 1.778279410038922752e-03
2.124570611694365198e+03 3.162277660168379394e-03
2.186711282672240941e+03 5.623413251903490971e-03
2.254585736221612478e+03 1.000000000000000021e-02
2.339648800037868568e+03 1.778279410038922925e-02
2.460240484564225881e+03 3.162277660168379134e-02
2.601044249244539969e+03 5.623413251903491145e-02
2.745844355479346632e+03 1.000000000000000056e-01
2.898469418276834404e+03 1.778279410038922925e-01
3.061687334325396478e+03 3.162277660168379412e-01
3.237709034196813263e+03 5.623413251903490728e-01
3.427476995181788880e+03 1.000000000000000000e+00
3.631777981168957467e+03 1.778279410038922759e+00
3.853107900517921280e+03 3.162277660168379523e+00
4.096103682245645359e+03 5.623413251903491172e+00
4.367246910054938780e+03 1.000000000000000000e+01
4.675103176186927158e+03 1.778279410038922848e+01
5.033277350152006875e+03 3.162277660168379256e+01
5.456563742733987965e+03 5.623413251903490817e+01
5.968382321372854676e+03 1.000000000000000000e+02
6.604920323643651500e+03 1.778279410038922776e+02
7.424415785909172882e+03 3.162277660168379612e+02
