# Temperature (K), Pressure (bars)
9.241829219402768558e+02 1.000000000000000048e-04
9.726456659420422284e+02 1.778279410038922698e-04
1.021108409342470964e+03 3.162277660168379394e-04
1.064489941302512534e+03 5.623413251903490971e-04
1.103649647087568383e+03 1.000000000000000021e-03
1.138303222083422042e+03 1.778279410038922752e-03
1.168184586459825596e+03 3.162277660168379394e-03
1.196861375590028729e+03 5.623413251903490971e-03
1.228022067447458994e+03 1.000000000000000021e-02
1.264337769797826240e+03 1.778279410038922925e-02
1.306917939837745053e+03 3.162277660168379134e-02
1.354697767724249616e+03 5.623413251903491145e-02
1.402068646754243218e+03 1.000000000000000056e-01
1.460265370816903896e+03 1.778279410038922925e-01
1.555164877171159105e+03 3.162277660168379412e-01
1.699691362952068630e+03 5.623413251903490728e-01
1.916275152731012895e+03 1.000000000000000000e+00
2.195757685125498028e+03 1.778279410038922759e+00
2.482291174119306106e+03 3.162277660168379523e+00
2.753538984332543350e+03 5.623413251903491172e+00
3.017077477378717958e+03 1.000000000000000000e+01
3.279395344701442355e+03 1.778279410038922848e+01
3.550474414356413945e+03 3.162277660168379256e+01
3.836467473523826357e+03 5.623413251903490817e+01
4.144504733479661809e+03 1.000000000000000000e+02
4.478094172628792876e+03 1.778279410038922776e+02
4.853818547897986718e+03 3.162277660168379612e+02
