# Temperature (K), Pressure (bars)
8.149343712620803899e+02 1.778279410038922901e-05
8.633805726618971903e+02 3.162277660168379530e-05
9.118267772958558908e+02 5.623413251903490700e-05
9.636299557960795710e+02 1.000000000000000048e-04
1.018750966586735558e+03 1.778279410038922698e-04
1.074402467078963809e+03 3.162277660168379394e-04
1.127645824960033906e+03 5.623413251903490971e-04
1.179336009875009495e+03 1.000000000000000021e-03
1.228538880429084429e+03 1.778279410038922752e-03
1.269826863093913744e+03 3.162277660168379394e-03
1.303021353867431799e+03 5.623413251903490971e-03
1.336438416167296737e+03 1.000000000000000021e-02
1.372099989578281793e+03 1.778279410038922925e-02
1.414339720430416719e+03 3.162277660168379134e-02
1.498324174333646624e+03 5.623413251903491145e-02
1.635054187034935239e+03 1.000000000000000056e-01
1.799679275971650213e+03 1.778279410038922925e-01
1.965565297988480779e+03 3.162277660168379412e-01
2.149833052237405354e+03 5.623413251903490728e-01
2.395039616159534035e+03 1.000000000000000000e+00
2.655768266265357852e+03 1.778279410038922759e+00
2.893739786886944330e+03 3.162277660168379523e+00
3.127849013643467970e+03 5.623413251903491172e+00
3.365483036665251348e+03 1.000000000000000000e+01
3.613025012432348376e+03 1.778279410038922848e+01
3.878518929942614704e+03 3.162277660168379256e+01
4.167598984120429122e+03 5.623413251903490817e+01
4.487070531937481974e+03 1.000000000000000000e+02
4.839954840234498079e+03 1.778279410038922776e+02
5.245454509822750879e+03 3.162277660168379612e+02
