# Temperature (K), Pressure (bars)
2.278768006147382039e+03 9.999999999999999547e-07
2.297020096486742204e+03 1.778279410038922901e-06
2.315272186826101461e+03 3.162277660168379191e-06
2.345589670631132776e+03 5.623413251903491208e-06
2.382766337141372333e+03 1.000000000000000082e-05
2.423275639827667874e+03 1.778279410038922901e-05
2.467393576192522687e+03 3.162277660168379530e-05
2.513335408181482308e+03 5.623413251903490700e-05
2.559147132248386242e+03 1.000000000000000048e-04
2.602609711824399255e+03 1.778279410038922698e-04
2.641741201229876424e+03 3.162277660168379394e-04
2.675554515979859389e+03 5.623413251903490971e-04
2.706453395866735264e+03 1.000000000000000021e-03
2.740473276113849806e+03 1.778279410038922752e-03
2.785172526154565276e+03 3.162277660168379394e-03
2.843095464030902804e+03 5.623413251903490971e-03
2.914607645858683554e+03 1.000000000000000021e-02
2.989445620835170757e+03 1.778279410038922925e-02
3.077568907122811652e+03 3.162277660168379134e-02
3.214291079181021814e+03 5.623413251903491145e-02
3.394252571186410478e+03 1.000000000000000056e-01
3.589475890521693145e+03 1.778279410038922925e-01
3.822554580040519795e+03 3.162277660168379412e-01
4.092616202237910329e+03 5.623413251903490728e-01
4.423767328335803541e+03 1.000000000000000000e+00
4.876690966339140687e+03 1.778279410038922759e+00
5.574091761378927913e+03 3.162277660168379523e+00
6.704521366325767303e+03 5.623413251903491172e+00
8.267195229251396086e+03 1.000000000000000000e+01
1.000000000000000000e+04 1.778279410038922848e+01
1.000000000000000000e+04 3.162277660168379256e+01
1.000000000000000000e+04 5.623413251903490817e+01
1.000000000000000000e+04 1.000000000000000000e+02
1.000000000000000000e+04 1.778279410038922776e+02
1.000000000000000000e+04 3.162277660168379612e+02
