# Temperature (K), Pressure (bars)
1.168708579492437821e+03 1.778279410038922901e-05
1.204173902565658409e+03 3.162277660168379530e-05
1.239639228307193434e+03 5.623413251903490700e-05
1.280673135953811197e+03 1.000000000000000048e-04
1.329015164200675599e+03 1.778279410038922698e-04
1.383168980612057794e+03 3.162277660168379394e-04
1.440622605745482815e+03 5.623413251903490971e-04
1.506028361955955688e+03 1.000000000000000021e-03
1.586812644776858860e+03 1.778279410038922752e-03
1.670367500408856131e+03 3.162277660168379394e-03
1.747946646338111577e+03 5.623413251903490971e-03
1.828199275109466043e+03 1.000000000000000021e-02
1.918586746980054841e+03 1.778279410038922925e-02
2.023504748678458327e+03 3.162277660168379134e-02
2.165651646249406440e+03 5.623413251903491145e-02
2.354397801915104083e+03 1.000000000000000056e-01
2.548484454624060618e+03 1.778279410038922925e-01
2.729550107396444218e+03 3.162277660168379412e-01
2.911347877293269448e+03 5.623413251903490728e-01
3.098425030879434416e+03 1.000000000000000000e+00
3.293300594419837125e+03 1.778279410038922759e+00
3.498432640213415198e+03 3.162277660168379523e+00
3.717538326204598434e+03 5.623413251903491172e+00
3.955416470376398593e+03 1.000000000000000000e+01
4.217553734116620035e+03 1.778279410038922848e+01
4.510458961372861268e+03 3.162277660168379256e+01
4.842700104802650458e+03 5.623413251903490817e+01
5.229879758789300467e+03 1.000000000000000000e+02
5.682540076516272165e+03 1.778279410038922776e+02
6.221216235947453242e+03 3.162277660168379612e+02
