# Temperature (K), Pressure (bars)
1.579322956939085771e+03 9.999999999999999547e-07
1.609407969826035696e+03 1.778279410038922901e-06
1.639492982713755737e+03 3.162277660168379191e-06
1.679661820420692948e+03 5.623413251903491208e-06
1.737623092055972847e+03 1.000000000000000082e-05
1.803987396734328058e+03 1.778279410038922901e-05
1.868162618649016395e+03 3.162277660168379530e-05
1.927864711220162462e+03 5.623413251903490700e-05
1.979886341514161813e+03 1.000000000000000048e-04
2.024351298856172434e+03 1.778279410038922698e-04
2.063356490351781758e+03 3.162277660168379394e-04
2.098472474235258233e+03 5.623413251903490971e-04
2.132532530927375319e+03 1.000000000000000021e-03
2.167750591831563270e+03 1.778279410038922752e-03
2.206053559944163226e+03 3.162277660168379394e-03
2.249478136805118083e+03 5.623413251903490971e-03
2.301370964557670959e+03 1.000000000000000021e-02
2.364207111490676652e+03 1.778279410038922925e-02
2.444712626493211246e+03 3.162277660168379134e-02
2.555539748173618136e+03 5.623413251903491145e-02
2.693428191242234789e+03 1.000000000000000056e-01
2.844137793496737231e+03 1.778279410038922925e-01
3.004468057281754682e+03 3.162277660168379412e-01
3.177218117137678746e+03 5.623413251903490728e-01
3.363778924739963259e+03 1.000000000000000000e+00
3.564901988538266323e+03 1.778279410038922759e+00
3.782256496354304090e+03 3.162277660168379523e+00
4.019596486136348176e+03 5.623413251903491172e+00
4.282657121053012816e+03 1.000000000000000000e+01
4.578878316947737403e+03 1.778279410038922848e+01
4.918137101400223401e+03 3.162277660168379256e+01
5.316801757075794740e+03 5.623413251903490817e+01
5.790807978431121228e+03 1.000000000000000000e+02
6.366053780293238560e+03 1.778279410038922776e+02
7.081522251353039792e+03 3.162277660168379612e+02
