# Temperature (K), Pressure (bars)
1.521194547963442801e+03 9.999999999999999547e-07
1.570399629984699459e+03 1.778279410038922901e-06
1.619604712005955662e+03 3.162277660168379191e-06
1.671397167648076447e+03 5.623413251903491208e-06
1.729243398454897488e+03 1.000000000000000082e-05
1.792655345891838806e+03 1.778279410038922901e-05
1.859699381800241781e+03 3.162277660168379530e-05
1.930434861203957553e+03 5.623413251903490700e-05
2.005453894543459228e+03 1.000000000000000048e-04
2.085785897064361507e+03 1.778279410038922698e-04
2.174118036433844281e+03 3.162277660168379394e-04
2.274231321844958984e+03 5.623413251903490971e-04
2.386302303691456473e+03 1.000000000000000021e-03
2.507049076091002462e+03 1.778279410038922752e-03
2.634731414925244735e+03 3.162277660168379394e-03
2.769865109399765970e+03 5.623413251903490971e-03
2.914508821059529510e+03 1.000000000000000021e-02
3.073153202700041220e+03 1.778279410038922925e-02
3.255548797886056491e+03 3.162277660168379134e-02
3.496313332269559396e+03 5.623413251903491145e-02
3.726905596654513374e+03 1.000000000000000056e-01
4.029863225189608784e+03 1.778279410038922925e-01
4.486095501105688527e+03 3.162277660168379412e-01
5.274801207353441896e+03 5.623413251903490728e-01
6.471499986301290846e+03 1.000000000000000000e+00
8.004155774667358855e+03 1.778279410038922759e+00
9.575403519479339593e+03 3.162277660168379523e+00
1.121627345905308175e+04 5.623413251903491172e+00
1.321594834844407887e+04 1.000000000000000000e+01
1.575042539470152951e+04 1.778279410038922848e+01
1.894964039770943418e+04 3.162277660168379256e+01
2.296027899147268909e+04 5.623413251903490817e+01
2.793500816778939770e+04 1.000000000000000000e+02
3.400728781910391262e+04 1.778279410038922776e+02
4.125109315766341024e+04 3.162277660168379612e+02
