# Temperature (K), Pressure (bars)
1.097540315649604509e+03 9.999999999999999547e-07
1.131350591324995321e+03 1.778279410038922901e-06
1.165160867007316938e+03 3.162277660168379191e-06
1.202762994477600387e+03 5.623413251903491208e-06
1.244160406679871812e+03 1.000000000000000082e-05
1.288616437674304734e+03 1.778279410038922901e-05
1.337213705379087060e+03 3.162277660168379530e-05
1.391780787524888183e+03 5.623413251903490700e-05
1.455490454875678097e+03 1.000000000000000048e-04
1.526378972822714786e+03 1.778279410038922698e-04
1.605081634182118705e+03 3.162277660168379394e-04
1.700888331933446807e+03 5.623413251903490971e-04
1.805569279219360851e+03 1.000000000000000021e-03
1.910681884784305794e+03 1.778279410038922752e-03
2.034184267762989066e+03 3.162277660168379394e-03
2.183663294250738545e+03 5.623413251903490971e-03
2.341513517502843115e+03 1.000000000000000021e-02
2.497939572337627396e+03 1.778279410038922925e-02
2.655727557301333036e+03 3.162277660168379134e-02
2.817368588686186740e+03 5.623413251903491145e-02
2.985094617215448579e+03 1.000000000000000056e-01
3.160705976362205547e+03 1.778279410038922925e-01
3.345465627501886502e+03 3.162277660168379412e-01
3.541297709111325275e+03 5.623413251903490728e-01
3.752195014615767832e+03 1.000000000000000000e+00
3.984146708828864575e+03 1.778279410038922759e+00
4.244910728997243496e+03 3.162277660168379523e+00
4.544857713885989142e+03 5.623413251903491172e+00
4.897642148692641968e+03 1.000000000000000000e+01
5.329047459342144975e+03 1.778279410038922848e+01
5.877898753323540404e+03 3.162277660168379256e+01
6.610860571853821057e+03 5.623413251903490817e+01
7.647277803391103589e+03 1.000000000000000000e+02
9.138264132217926090e+03 1.778279410038922776e+02
1.104917553183806922e+04 3.162277660168379612e+02
