# Temperature (K), Pressure (bars)
9.635762698193431106e+02 3.162277660168379394e-04
1.016865282557024784e+03 5.623413251903490971e-04
1.070154296794069978e+03 1.000000000000000021e-03
1.122920582074145841e+03 1.778279410038922752e-03
1.175558086172844241e+03 3.162277660168379394e-03
1.229630985715625229e+03 5.623413251903490971e-03
1.285839641037172441e+03 1.000000000000000021e-02
1.347281183608243055e+03 1.778279410038922925e-02
1.417434256511793592e+03 3.162277660168379134e-02
1.505316047193953182e+03 5.623413251903491145e-02
1.620674976772061882e+03 1.000000000000000056e-01
1.798144981036937907e+03 1.778279410038922925e-01
2.055138979069522065e+03 3.162277660168379412e-01
2.324583864035373608e+03 5.623413251903490728e-01
2.566687746368207627e+03 1.000000000000000000e+00
2.796174102913645129e+03 1.778279410038922759e+00
3.020112387079986547e+03 3.162277660168379523e+00
3.245083850256446567e+03 5.623413251903491172e+00
3.477263024791310272e+03 1.000000000000000000e+01
3.722702451567603475e+03 1.778279410038922848e+01
3.989398496521938341e+03 3.162277660168379256e+01
4.282358753274966148e+03 5.623413251903490817e+01
4.608524425420019725e+03 1.000000000000000000e+02
4.971304493210200235e+03 1.778279410038922776e+02
5.390785176385705199e+03 3.162277660168379612e+02
