# Temperature (K), Pressure (bars)
9.418327894788980075e+02 1.000000000000000048e-04
9.921710236502979114e+02 1.778279410038922698e-04
1.042509259379375180e+03 3.162277660168379394e-04
1.090581802711972159e+03 5.623413251903490971e-04
1.137655223518251660e+03 1.000000000000000021e-03
1.185771201565547472e+03 1.778279410038922752e-03
1.239125575222797579e+03 3.162277660168379394e-03
1.304330165292011088e+03 5.623413251903490971e-03
1.379874860654819940e+03 1.000000000000000021e-02
1.460603690129215920e+03 1.778279410038922925e-02
1.550503496041781546e+03 3.162277660168379134e-02
1.645614878158516603e+03 5.623413251903491145e-02
1.737016870306088776e+03 1.000000000000000056e-01
1.838966840291327117e+03 1.778279410038922925e-01
1.956416207601668475e+03 3.162277660168379412e-01
2.115486974267138976e+03 5.623413251903490728e-01
2.351669233493442334e+03 1.000000000000000000e+00
2.613186473520901927e+03 1.778279410038922759e+00
2.864175267238412744e+03 3.162277660168379523e+00
3.115294313372695342e+03 5.623413251903491172e+00
3.361554885056182229e+03 1.000000000000000000e+01
3.610207063927702620e+03 1.778279410038922848e+01
3.875415968918323415e+03 3.162277660168379256e+01
4.164667776955698173e+03 5.623413251903490817e+01
4.484959460876336379e+03 1.000000000000000000e+02
4.839611131476322953e+03 1.778279410038922776e+02
5.248113308481847525e+03 3.162277660168379612e+02
