# Temperature (K), Pressure (bars)
1.080500220365843688e+03 1.000000000000000082e-05
1.112437655850575538e+03 1.778279410038922901e-05
1.149693179458473196e+03 3.162277660168379530e-05
1.191837756877366701e+03 5.623413251903490700e-05
1.239008161628652942e+03 1.000000000000000048e-04
1.289905388959196443e+03 1.778279410038922698e-04
1.344306298126516822e+03 3.162277660168379394e-04
1.403142838549798853e+03 5.623413251903490971e-04
1.467830817648082302e+03 1.000000000000000021e-03
1.539670139965053977e+03 1.778279410038922752e-03
1.625212256591338701e+03 3.162277660168379394e-03
1.726220440431387033e+03 5.623413251903490971e-03
1.863981275582312719e+03 1.000000000000000021e-02
2.057643218361703475e+03 1.778279410038922925e-02
2.261684366628882344e+03 3.162277660168379134e-02
2.445436995991211006e+03 5.623413251903491145e-02
2.620700474302711427e+03 1.000000000000000056e-01
2.793524044757602041e+03 1.778279410038922925e-01
2.968029716610665673e+03 3.162277660168379412e-01
3.147205970021902431e+03 5.623413251903490728e-01
3.333566773337115592e+03 1.000000000000000000e+00
3.530130965543731691e+03 1.778279410038922759e+00
3.740971884729996873e+03 3.162277660168379523e+00
3.970947822587845621e+03 5.623413251903491172e+00
4.225606506625503243e+03 1.000000000000000000e+01
4.511669056780450774e+03 1.778279410038922848e+01
4.838133017022486456e+03 3.162277660168379256e+01
5.220852966551815371e+03 5.623413251903490817e+01
5.673017892946610118e+03 1.000000000000000000e+02
6.218378814944030637e+03 1.778279410038922776e+02
6.891729345461011690e+03 3.162277660168379612e+02
