# Temperature (K), Pressure (bars)
9.383088828492707307e+02 9.999999999999999547e-07
9.473240959492857201e+02 1.778279410038922901e-06
9.563393090559554821e+02 3.162277660168379191e-06
9.701150499772708145e+02 5.623413251903491208e-06
9.900682085476295242e+02 1.000000000000000082e-05
1.016183794253342626e+03 1.778279410038922901e-05
1.047753491580518585e+03 3.162277660168379530e-05
1.084780623830159584e+03 5.623413251903490700e-05
1.126825267085872383e+03 1.000000000000000048e-04
1.172872412862153396e+03 1.778279410038922698e-04
1.222998449081037734e+03 3.162277660168379394e-04
1.276474974482413018e+03 5.623413251903490971e-04
1.333470500766086843e+03 1.000000000000000021e-03
1.396095462983797688e+03 1.778279410038922752e-03
1.467590285808588305e+03 3.162277660168379394e-03
1.551018968359229802e+03 5.623413251903490971e-03
1.656166858067534577e+03 1.000000000000000021e-02
1.781495086870675550e+03 1.778279410038922925e-02
1.938312298538471168e+03 3.162277660168379134e-02
2.144590525106109908e+03 5.623413251903491145e-02
2.358736577123680945e+03 1.000000000000000056e-01
2.552375564231260796e+03 1.778279410038922925e-01
2.738611370102990804e+03 3.162277660168379412e-01
2.923501247724931090e+03 5.623413251903490728e-01
3.111152993565850466e+03 1.000000000000000000e+00
3.304877285614923949e+03 1.778279410038922759e+00
3.508467067935369414e+03 3.162277660168379523e+00
3.726410112614134050e+03 5.623413251903491172e+00
3.963585567817990523e+03 1.000000000000000000e+01
4.225405928931962990e+03 1.778279410038922848e+01
4.518341099345453586e+03 3.162277660168379256e+01
4.850973048983543777e+03 5.623413251903490817e+01
5.238935069442255553e+03 1.000000000000000000e+02
5.692720396263030125e+03 1.778279410038922776e+02
6.232927731104750819e+03 3.162277660168379612e+02
