# Temperature (K), Pressure (bars)
1.492663335799298920e+03 3.162277660168379530e-05
1.524662497588729366e+03 5.623413251903490700e-05
1.556661661831776200e+03 1.000000000000000048e-04
1.591945985744495374e+03 1.778279410038922698e-04
1.630622789177786899e+03 3.162277660168379394e-04
1.670762674003121901e+03 5.623413251903490971e-04
1.712729537934256996e+03 1.000000000000000021e-03
1.753436078653342520e+03 1.778279410038922752e-03
1.791735335210069934e+03 3.162277660168379394e-03
1.832271862012308247e+03 5.623413251903490971e-03
1.875672246653909042e+03 1.000000000000000021e-02
1.920441142666881888e+03 1.778279410038922925e-02
1.967303187362388371e+03 3.162277660168379134e-02
2.018808398646713385e+03 5.623413251903491145e-02
2.080476662545896033e+03 1.000000000000000056e-01
2.155710405547704340e+03 1.778279410038922925e-01
2.256516945028392001e+03 3.162277660168379412e-01
2.419436512569790011e+03 5.623413251903490728e-01
2.641311872983295416e+03 1.000000000000000000e+00
2.868558069456680187e+03 1.778279410038922759e+00
3.086441065686951788e+03 3.162277660168379523e+00
3.309176880907937175e+03 5.623413251903491172e+00
3.541658121052040769e+03 1.000000000000000000e+01
3.788775557516707522e+03 1.778279410038922848e+01
4.057702045749349054e+03 3.162277660168379256e+01
4.354454957251036831e+03 5.623413251903490817e+01
4.686292202751583318e+03 1.000000000000000000e+02
5.056410370706128560e+03 1.778279410038922776e+02
5.486880338297877643e+03 3.162277660168379612e+02
