# Temperature (K), Pressure (bars)
1.793024849402442669e+03 9.999999999999999547e-07
1.806575630007530435e+03 1.778279410038922901e-06
1.820126410612617974e+03 3.162277660168379191e-06
1.836638904653774262e+03 5.623413251903491208e-06
1.856373792421200733e+03 1.000000000000000082e-05
1.881422203451365931e+03 1.778279410038922901e-05
1.914032820950862515e+03 3.162277660168379530e-05
1.953203403665748510e+03 5.623413251903490700e-05
1.998438390654729119e+03 1.000000000000000048e-04
2.049822039095515720e+03 1.778279410038922698e-04
2.106635535090919802e+03 3.162277660168379394e-04
2.169119694414089736e+03 5.623413251903490971e-04
2.238195632165334246e+03 1.000000000000000021e-03
2.315680918380678122e+03 1.778279410038922752e-03
2.404680625683449762e+03 3.162277660168379394e-03
2.505918220076016041e+03 5.623413251903490971e-03
2.617464990835153912e+03 1.000000000000000021e-02
2.739052581363553145e+03 1.778279410038922925e-02
2.872191428909912702e+03 3.162277660168379134e-02
3.018800681908282968e+03 5.623413251903491145e-02
3.181632377813139101e+03 1.000000000000000056e-01
3.364245366768127496e+03 1.778279410038922925e-01
3.570035513587191872e+03 3.162277660168379412e-01
3.802182413561436078e+03 5.623413251903490728e-01
4.065893501578530504e+03 1.000000000000000000e+00
4.376697742110369290e+03 1.778279410038922759e+00
4.737122996101036733e+03 3.162277660168379523e+00
5.210461680312046155e+03 5.623413251903491172e+00
5.889097376726878792e+03 1.000000000000000000e+01
6.939412964951205140e+03 1.778279410038922848e+01
8.464649755785339948e+03 3.162277660168379256e+01
1.034870589829610253e+04 5.623413251903490817e+01
1.259338694955726532e+04 1.000000000000000000e+02
1.533374996296427707e+04 1.778279410038922776e+02
1.860353927614305576e+04 3.162277660168379612e+02
