# Temperature (K), Pressure (bars)
9.351761985167720468e+02 9.999999999999999547e-07
9.647402796509535392e+02 1.778279410038922901e-06
9.943043607915524262e+02 3.162277660168379191e-06
1.027821476008351055e+03 5.623413251903491208e-06
1.065825549675674210e+03 1.000000000000000082e-05
1.108145866649286745e+03 1.778279410038922901e-05
1.154130719197212329e+03 3.162277660168379530e-05
1.203582186298998977e+03 5.623413251903490700e-05
1.256480434049803534e+03 1.000000000000000048e-04
1.312715873822847243e+03 1.778279410038922698e-04
1.373825170513493731e+03 3.162277660168379394e-04
1.442208146582817790e+03 5.623413251903490971e-04
1.522049870510225219e+03 1.000000000000000021e-03
1.616033571894671013e+03 1.778279410038922752e-03
1.733540164860917685e+03 3.162277660168379394e-03
1.895114018120092624e+03 5.623413251903490971e-03
2.091021963445971778e+03 1.000000000000000021e-02
2.285226584790953893e+03 1.778279410038922925e-02
2.465659602530486609e+03 3.162277660168379134e-02
2.638713004080377686e+03 5.623413251903491145e-02
2.809280027138768673e+03 1.000000000000000056e-01
2.980869869370661036e+03 1.778279410038922925e-01
3.156112208558653037e+03 3.162277660168379412e-01
3.337589425445261440e+03 5.623413251903490728e-01
3.528850946386586202e+03 1.000000000000000000e+00
3.734453486348734714e+03 1.778279410038922759e+00
3.959565146241096500e+03 3.162277660168379523e+00
4.210132053237586661e+03 5.623413251903491172e+00
4.493557729065165404e+03 1.000000000000000000e+01
4.820049946620434639e+03 1.778279410038922848e+01
5.206686333050233770e+03 3.162277660168379256e+01
5.671924291501788503e+03 5.623413251903490817e+01
6.247803169108635302e+03 1.000000000000000000e+02
6.985209285690065371e+03 1.778279410038922776e+02
7.968121324298015679e+03 3.162277660168379612e+02
