# Temperature (K), Pressure (bars)
2.408932392496953071e+03 9.999999999999999547e-07
2.423144141707748531e+03 1.778279410038922901e-06
2.437355890918544446e+03 3.162277660168379191e-06
2.466906841460480791e+03 5.623413251903491208e-06
2.499900836785895081e+03 1.000000000000000082e-05
2.532139257789258863e+03 1.778279410038922901e-05
2.567143538589238688e+03 3.162277660168379530e-05
2.604759220021418514e+03 5.623413251903490700e-05
2.645521493667753475e+03 1.000000000000000048e-04
2.688941898581698297e+03 1.778279410038922698e-04
2.733918164085235276e+03 3.162277660168379394e-04
2.778766269388815090e+03 5.623413251903490971e-04
2.820280402801407035e+03 1.000000000000000021e-03
2.854672671000225364e+03 1.778279410038922752e-03
2.881414917567047723e+03 3.162277660168379394e-03
2.907470361041011074e+03 5.623413251903490971e-03
2.942664804034172448e+03 1.000000000000000021e-02
2.995951910826258882e+03 1.778279410038922925e-02
3.066602881086241268e+03 3.162277660168379134e-02
3.160353349465433439e+03 5.623413251903491145e-02
3.295985572251980102e+03 1.000000000000000056e-01
3.468795455236666385e+03 1.778279410038922925e-01
3.663605776146969674e+03 3.162277660168379412e-01
3.891059132272469469e+03 5.623413251903490728e-01
4.162190784395705123e+03 1.000000000000000000e+00
4.478770050286570040e+03 1.778279410038922759e+00
4.885193190747850167e+03 3.162277660168379523e+00
5.452096910966134601e+03 5.623413251903491172e+00
6.325351620191222537e+03 1.000000000000000000e+01
7.665781119836020480e+03 1.778279410038922848e+01
9.406575806564769664e+03 3.162277660168379256e+01
1.000000000000000000e+04 5.623413251903490817e+01
1.000000000000000000e+04 1.000000000000000000e+02
1.000000000000000000e+04 1.778279410038922776e+02
1.000000000000000000e+04 3.162277660168379612e+02
