# Temperature (K), Pressure (bars)
2.311542785677130269e+03 9.999999999999999547e-07
2.332548080161886901e+03 1.778279410038922901e-06
2.353553374646650354e+03 3.162277660168379191e-06
2.374407578137382643e+03 5.623413251903491208e-06
2.395077739991574163e+03 1.000000000000000082e-05
2.415044901433881023e+03 1.778279410038922901e-05
2.433759991149828238e+03 3.162277660168379530e-05
2.449361902597233893e+03 5.623413251903490700e-05
2.458455128135964515e+03 1.000000000000000048e-04
2.461039968927722839e+03 1.778279410038922698e-04
2.463898210770094920e+03 3.162277660168379394e-04
2.475334891205884105e+03 5.623413251903490971e-04
2.498825590890833155e+03 1.000000000000000021e-03
2.533718465843633567e+03 1.778279410038922752e-03
2.579464535985543080e+03 3.162277660168379394e-03
2.636355193151815911e+03 5.623413251903490971e-03
2.707390201833787614e+03 1.000000000000000021e-02
2.801066195010145748e+03 1.778279410038922925e-02
2.919105475595177268e+03 3.162277660168379134e-02
3.053662929001580324e+03 5.623413251903491145e-02
3.202756697156926293e+03 1.000000000000000056e-01
3.370594094521115949e+03 1.778279410038922925e-01
3.562157269984722006e+03 3.162277660168379412e-01
3.783621138215499741e+03 5.623413251903490728e-01
4.042354911327950504e+03 1.000000000000000000e+00
4.350646662509980160e+03 1.778279410038922759e+00
4.700688631791718763e+03 3.162277660168379523e+00
5.154336304012227629e+03 5.623413251903491172e+00
5.789580242456067026e+03 1.000000000000000000e+01
6.752549223097943468e+03 1.778279410038922848e+01
8.193725836837094903e+03 3.162277660168379256e+01
1.002099794983904394e+04 5.623413251903490817e+01
1.219292160669594705e+04 1.000000000000000000e+02
1.484475453425803789e+04 1.778279410038922776e+02
1.800806541139533510e+04 3.162277660168379612e+02
