# Temperature (K), Pressure (bars)
1.249858966359443684e+03 1.000000000000000048e-04
1.287589015008660681e+03 1.778279410038922698e-04
1.325319066156188228e+03 3.162277660168379394e-04
1.366211557880153805e+03 5.623413251903490971e-04
1.413092017751596586e+03 1.000000000000000021e-03
1.467148876387608425e+03 1.778279410038922752e-03
1.526737067857160582e+03 3.162277660168379394e-03
1.593353173493243730e+03 5.623413251903490971e-03
1.675822897270159729e+03 1.000000000000000021e-02
1.767005420076023938e+03 1.778279410038922925e-02
1.853016833589979115e+03 3.162277660168379134e-02
1.939796013371133085e+03 5.623413251903491145e-02
2.039132408868210632e+03 1.000000000000000056e-01
2.163219233733465444e+03 1.778279410038922925e-01
2.335920633969111805e+03 3.162277660168379412e-01
2.550837974682321146e+03 5.623413251903490728e-01
2.766655364734343038e+03 1.000000000000000000e+00
2.973301470647842962e+03 1.778279410038922759e+00
3.183411801990796448e+03 3.162277660168379523e+00
3.401993663051622661e+03 5.623413251903491172e+00
3.632980513383425205e+03 1.000000000000000000e+01
3.881018721196785464e+03 1.778279410038922848e+01
4.153328687359682590e+03 3.162277660168379256e+01
4.455781837258125051e+03 5.623413251903490817e+01
4.796017897715929394e+03 1.000000000000000000e+02
5.177886889788999724e+03 1.778279410038922776e+02
5.624354189834733006e+03 3.162277660168379612e+02
