# Temperature (K), Pressure (bars)
2.235117363205871698e+03 9.999999999999999547e-07
2.252956111075371609e+03 1.778279410038922901e-06
2.270794858944871976e+03 3.162277660168379191e-06
2.288434706271047617e+03 5.623413251903491208e-06
2.308558107406533964e+03 1.000000000000000082e-05
2.331391209284312026e+03 1.778279410038922901e-05
2.355686181838870652e+03 3.162277660168379530e-05
2.379581163552737962e+03 5.623413251903490700e-05
2.401353443906497887e+03 1.000000000000000048e-04
2.421020436233003238e+03 1.778279410038922698e-04
2.440451504770352130e+03 3.162277660168379394e-04
2.462629090302156328e+03 5.623413251903490971e-04
2.490317764932273349e+03 1.000000000000000021e-03
2.525437334551448657e+03 1.778279410038922752e-03
2.570227550872159554e+03 3.162277660168379394e-03
2.626195464992998950e+03 5.623413251903490971e-03
2.697973520809736328e+03 1.000000000000000021e-02
2.794215335346715165e+03 1.778279410038922925e-02
2.913470024936048503e+03 3.162277660168379134e-02
3.048543364194514652e+03 5.623413251903491145e-02
3.199205021287369618e+03 1.000000000000000056e-01
3.369231753724537157e+03 1.778279410038922925e-01
3.563530869730992890e+03 3.162277660168379412e-01
3.787722635270634783e+03 5.623413251903490728e-01
4.048620055892678920e+03 1.000000000000000000e+00
4.358765465476471945e+03 1.778279410038922759e+00
4.712116816884509717e+03 3.162277660168379523e+00
5.170633123804355819e+03 5.623413251903491172e+00
5.810283020699536792e+03 1.000000000000000000e+01
6.765897928961549951e+03 1.778279410038922848e+01
8.199882823729747543e+03 3.162277660168379256e+01
1.002773854003101042e+04 5.623413251903490817e+01
1.220004156341705675e+04 1.000000000000000000e+02
1.485056308311194334e+04 1.778279410038922776e+02
1.801228168952905253e+04 3.162277660168379612e+02
