# Temperature (K), Pressure (bars)
1.837007727528822670e+03 9.999999999999999547e-07
1.873849461955412607e+03 1.778279410038922901e-06
1.910691196382002317e+03 3.162277660168379191e-06
1.953355223792875449e+03 5.623413251903491208e-06
2.001926366149723435e+03 1.000000000000000082e-05
2.053202536355310713e+03 1.778279410038922901e-05
2.101880936868109984e+03 3.162277660168379530e-05
2.144655598508914863e+03 5.623413251903490700e-05
2.181740589902051852e+03 1.000000000000000048e-04
2.214445958572694053e+03 1.778279410038922698e-04
2.244800404113024342e+03 3.162277660168379394e-04
2.275063407163992906e+03 5.623413251903490971e-04
2.307141003672501029e+03 1.000000000000000021e-03
2.343074549555541580e+03 1.778279410038922752e-03
2.384268432721883073e+03 3.162277660168379394e-03
2.433928243808442858e+03 5.623413251903490971e-03
2.492674380856618882e+03 1.000000000000000021e-02
2.569387246532270183e+03 1.778279410038922925e-02
2.678009767876673777e+03 3.162277660168379134e-02
2.808170175005627698e+03 5.623413251903491145e-02
2.949457074700309477e+03 1.000000000000000056e-01
3.105721947453980647e+03 1.778279410038922925e-01
3.278910675796210398e+03 3.162277660168379412e-01
3.469610518568555108e+03 5.623413251903490728e-01
3.677987263801162044e+03 1.000000000000000000e+00
3.906151396654170185e+03 1.778279410038922759e+00
4.159408952578565732e+03 3.162277660168379523e+00
4.446331561277208493e+03 5.623413251903491172e+00
4.779156982674686333e+03 1.000000000000000000e+01
5.173583582169690999e+03 1.778279410038922848e+01
5.659933872534311377e+03 3.162277660168379256e+01
6.283459535652959858e+03 5.623413251903490817e+01
7.123694286818298679e+03 1.000000000000000000e+02
8.316867679892506203e+03 1.778279410038922776e+02
9.985179430397100077e+03 3.162277660168379612e+02
