# Temperature (K), Pressure (bars)
1.019737878999362579e+03 3.162277660168379394e-04
1.076672837408100804e+03 5.623413251903490971e-04
1.133607797000623350e+03 1.000000000000000021e-03
1.184738965009963067e+03 1.778279410038922752e-03
1.232112814813514206e+03 3.162277660168379394e-03
1.279590912540305908e+03 5.623413251903490971e-03
1.331719923904060806e+03 1.000000000000000021e-02
1.393683300678730802e+03 1.778279410038922925e-02
1.472289052645817947e+03 3.162277660168379134e-02
1.567345161072224073e+03 5.623413251903491145e-02
1.675568718235807637e+03 1.000000000000000056e-01
1.795757251344873112e+03 1.778279410038922925e-01
1.928212186555202379e+03 3.162277660168379412e-01
2.070278743622335242e+03 5.623413251903490728e-01
2.253529865432148199e+03 1.000000000000000000e+00
2.508086569495294498e+03 1.778279410038922759e+00
2.775028359957952489e+03 3.162277660168379523e+00
3.019494077042689241e+03 5.623413251903491172e+00
3.263109447453201938e+03 1.000000000000000000e+01
3.513797412373069164e+03 1.778279410038922848e+01
3.779420150698515499e+03 3.162277660168379256e+01
4.066149681528577275e+03 5.623413251903490817e+01
4.380722469306415405e+03 1.000000000000000000e+02
4.726205115110984480e+03 1.778279410038922776e+02
5.120955574361742038e+03 3.162277660168379612e+02
