# Temperature (K), Pressure (bars)
9.982611267821837373e+02 1.000000000000000048e-04
1.058235552147232056e+03 1.778279410038922698e-04
1.118209980905434804e+03 3.162277660168379394e-04
1.178335120032111945e+03 5.623413251903490971e-04
1.238806020114408057e+03 1.000000000000000021e-03
1.300858124274097690e+03 1.778279410038922752e-03
1.368564757599171799e+03 3.162277660168379394e-03
1.439216563661432247e+03 5.623413251903490971e-03
1.515091419671427957e+03 1.000000000000000021e-02
1.607256371323198891e+03 1.778279410038922925e-02
1.696869691798483473e+03 3.162277660168379134e-02
1.773603202674835302e+03 5.623413251903491145e-02
1.854023515367658320e+03 1.000000000000000056e-01
1.954390453133528126e+03 1.778279410038922925e-01
2.073684937091879419e+03 3.162277660168379412e-01
2.237520672728868249e+03 5.623413251903490728e-01
2.477996293739992325e+03 1.000000000000000000e+00
2.732810267604469573e+03 1.778279410038922759e+00
2.963295615148157140e+03 3.162277660168379523e+00
3.192446290919605417e+03 5.623413251903491172e+00
3.427479191971058754e+03 1.000000000000000000e+01
3.674205098713596726e+03 1.778279410038922848e+01
3.940440259589235666e+03 3.162277660168379256e+01
4.231814541988801466e+03 5.623413251903490817e+01
4.555244094944934659e+03 1.000000000000000000e+02
4.914220273872657344e+03 1.778279410038922776e+02
5.328139915637575541e+03 3.162277660168379612e+02
