# Temperature (K), Pressure (bars)
8.112677243104029685e+02 1.000000000000000021e-03
8.503279967360663250e+02 1.778279410038922752e-03
8.893882704503192826e+02 3.162277660168379394e-03
9.282572110945465056e+02 5.623413251903490971e-03
9.670912221097008796e+02 1.000000000000000021e-02
1.006440522501457508e+03 1.778279410038922925e-02
1.046832515012382373e+03 3.162277660168379134e-02
1.090263176464434764e+03 5.623413251903491145e-02
1.139940316879899228e+03 1.000000000000000056e-01
1.200536823893029123e+03 1.778279410038922925e-01
1.276520704377122456e+03 3.162277660168379412e-01
1.379139190447529472e+03 5.623413251903490728e-01
1.525950405045713524e+03 1.000000000000000000e+00
1.731453127970145488e+03 1.778279410038922759e+00
1.993405863876656213e+03 3.162277660168379523e+00
2.282761680911936310e+03 5.623413251903491172e+00
2.577054247338509867e+03 1.000000000000000000e+01
2.870897921943637812e+03 1.778279410038922848e+01
3.165397512646157338e+03 3.162277660168379256e+01
3.463726213195949185e+03 5.623413251903490817e+01
3.773639454272712101e+03 1.000000000000000000e+02
4.100513360474064029e+03 1.778279410038922776e+02
4.458532391031746556e+03 3.162277660168379612e+02
