# Temperature (K), Pressure (bars)
1.765164954751072401e+03 9.999999999999999547e-07
1.786401788444994509e+03 1.778279410038922901e-06
1.807638622138916617e+03 3.162277660168379191e-06
1.832580930958318731e+03 5.623413251903491208e-06
1.861683166905887447e+03 1.000000000000000082e-05
1.896705845557030443e+03 1.778279410038922901e-05
1.938492667333757481e+03 3.162277660168379530e-05
1.986063873694389713e+03 5.623413251903490700e-05
2.039083204286161845e+03 1.000000000000000048e-04
2.096800155588443886e+03 1.778279410038922698e-04
2.159159393461748095e+03 3.162277660168379394e-04
2.227476640319314811e+03 5.623413251903490971e-04
2.306087708071730503e+03 1.000000000000000021e-03
2.398853505388848134e+03 1.778279410038922752e-03
2.502952829493327499e+03 3.162277660168379394e-03
2.615209932907159782e+03 5.623413251903490971e-03
2.736021903538103288e+03 1.000000000000000021e-02
2.866842595535099463e+03 1.778279410038922925e-02
3.010270274011416404e+03 3.162277660168379134e-02
3.170398888297783742e+03 5.623413251903491145e-02
3.355822927119203996e+03 1.000000000000000056e-01
3.546513148510099199e+03 1.778279410038922925e-01
3.767540172270648782e+03 3.162277660168379412e-01
4.029108270125275794e+03 5.623413251903490728e-01
4.333081972559524729e+03 1.000000000000000000e+00
4.730025722406825480e+03 1.778279410038922759e+00
5.303268707762426857e+03 3.162277660168379523e+00
6.217416616196784162e+03 5.623413251903491172e+00
7.605747457365498121e+03 1.000000000000000000e+01
9.335248829955959081e+03 1.778279410038922848e+01
1.000000000000000000e+04 3.162277660168379256e+01
1.000000000000000000e+04 5.623413251903490817e+01
1.000000000000000000e+04 1.000000000000000000e+02
1.000000000000000000e+04 1.778279410038922776e+02
1.000000000000000000e+04 3.162277660168379612e+02
