# Temperature (K), Pressure (bars)
1.054837872225962883e+03 3.162277660168379394e-04
1.093759449434599674e+03 5.623413251903490971e-04
1.132681023845992286e+03 1.000000000000000021e-03
1.166475030034178417e+03 1.778279410038922752e-03
1.197938745356628033e+03 3.162277660168379394e-03
1.230295770216243909e+03 5.623413251903490971e-03
1.263940165755437874e+03 1.000000000000000021e-02
1.298682924029762717e+03 1.778279410038922925e-02
1.334544095526690626e+03 3.162277660168379134e-02
1.369777938359447489e+03 5.623413251903491145e-02
1.416487024455843539e+03 1.000000000000000056e-01
1.492526228737413248e+03 1.778279410038922925e-01
1.598593608315326492e+03 3.162277660168379412e-01
1.730512773854555007e+03 5.623413251903490728e-01
1.909600832912981332e+03 1.000000000000000000e+00
2.157376561482573379e+03 1.778279410038922759e+00
2.437267430794819575e+03 3.162277660168379523e+00
2.711552187625406077e+03 5.623413251903491172e+00
2.979174205192957288e+03 1.000000000000000000e+01
3.244660284790230435e+03 1.778279410038922848e+01
3.517059727196554377e+03 3.162277660168379256e+01
3.803299640813953374e+03 5.623413251903490817e+01
4.110726131254651591e+03 1.000000000000000000e+02
4.443010666895228496e+03 1.778279410038922776e+02
4.816350146982389560e+03 3.162277660168379612e+02
