# Temperature (K), Pressure (bars)
7.762652934726128251e+02 1.000000000000000048e-04
8.235986278150868429e+02 1.778279410038922698e-04
8.709319632718162438e+02 3.162277660168379394e-04
9.174627940688594663e+02 5.623413251903490971e-04
9.637697888211224608e+02 1.000000000000000021e-03
1.011860817256440669e+03 1.778279410038922752e-03
1.064822140089520644e+03 3.162277660168379394e-03
1.125069948169868894e+03 5.623413251903490971e-03
1.199072574969323568e+03 1.000000000000000021e-02
1.287837220067340013e+03 1.778279410038922925e-02
1.417046044563697023e+03 3.162277660168379134e-02
1.617562486598758596e+03 5.623413251903491145e-02
1.859342224090404443e+03 1.000000000000000056e-01
2.111989461786030915e+03 1.778279410038922925e-01
2.359394736571923204e+03 3.162277660168379412e-01
2.586687305357641890e+03 5.623413251903490728e-01
2.798907666039259766e+03 1.000000000000000000e+00
3.004492635890062502e+03 1.778279410038922759e+00
3.211288158063069659e+03 3.162277660168379523e+00
3.425727529621000940e+03 5.623413251903491172e+00
3.653213611657344700e+03 1.000000000000000000e+01
3.899030984165357495e+03 1.778279410038922848e+01
4.171313993318410212e+03 3.162277660168379256e+01
4.474312340186293113e+03 5.623413251903490817e+01
4.815496628367453013e+03 1.000000000000000000e+02
5.198378007973619788e+03 1.778279410038922776e+02
5.646742805853092250e+03 3.162277660168379612e+02
