# Temperature (K), Pressure (bars)
9.346335730795806285e+02 5.623413251903491208e-06
9.810136147326558103e+02 1.000000000000000082e-05
1.027393655802743751e+03 1.778279410038922901e-05
1.069570511347681759e+03 3.162277660168379530e-05
1.111878169054330101e+03 5.623413251903490700e-05
1.157394405335263400e+03 1.000000000000000048e-04
1.207277240732339806e+03 1.778279410038922698e-04
1.262661322424094578e+03 3.162277660168379394e-04
1.327031040956639572e+03 5.623413251903490971e-04
1.408350823451394035e+03 1.000000000000000021e-03
1.508010238665307952e+03 1.778279410038922752e-03
1.623977174859046954e+03 3.162277660168379394e-03
1.752178861053713263e+03 5.623413251903490971e-03
1.896039898815723063e+03 1.000000000000000021e-02
2.069425962704998256e+03 1.778279410038922925e-02
2.258003611075827394e+03 3.162277660168379134e-02
2.440029321953064482e+03 5.623413251903491145e-02
2.615807391083027142e+03 1.000000000000000056e-01
2.790012484573617257e+03 1.778279410038922925e-01
2.965926732352209456e+03 3.162277660168379412e-01
3.145600179860983644e+03 5.623413251903490728e-01
3.331439229525571591e+03 1.000000000000000000e+00
3.527231185776514849e+03 1.778279410038922759e+00
3.737556281507551830e+03 3.162277660168379523e+00
3.967302381922538189e+03 5.623413251903491172e+00
4.221982480083365772e+03 1.000000000000000000e+01
4.508331270053613480e+03 1.778279410038922848e+01
4.835390262066865944e+03 3.162277660168379256e+01
5.219104274664678087e+03 5.623413251903490817e+01
5.672364340060364157e+03 1.000000000000000000e+02
6.218951619459926405e+03 1.778279410038922776e+02
6.894589579950389634e+03 3.162277660168379612e+02
