# Temperature (K), Pressure (bars)
2.435898186886091025e+03 9.999999999999999547e-07
2.446055737627410963e+03 1.778279410038922901e-06
2.456213288368730900e+03 3.162277660168379191e-06
2.477217233744573605e+03 5.623413251903491208e-06
2.508041469616085124e+03 1.000000000000000082e-05
2.541406515296438556e+03 1.778279410038922901e-05
2.575871484303757370e+03 3.162277660168379530e-05
2.613009910673201375e+03 5.623413251903490700e-05
2.652887830392984142e+03 1.000000000000000048e-04
2.694941676420498425e+03 1.778279410038922698e-04
2.738763138137615442e+03 3.162277660168379394e-04
2.783915506458261916e+03 5.623413251903490971e-04
2.828371963239519573e+03 1.000000000000000021e-03
2.868127814970484451e+03 1.778279410038922752e-03
2.899375320973001180e+03 3.162277660168379394e-03
2.923576529111859600e+03 5.623413251903490971e-03
2.948894737322101719e+03 1.000000000000000021e-02
2.986618208823571877e+03 1.778279410038922925e-02
3.042355580059471322e+03 3.162277660168379134e-02
3.121172909117372910e+03 5.623413251903491145e-02
3.237880460593470161e+03 1.000000000000000056e-01
3.394896048421363048e+03 1.778279410038922925e-01
3.581430286008144321e+03 3.162277660168379412e-01
3.799197958268194270e+03 5.623413251903490728e-01
4.059297804375732539e+03 1.000000000000000000e+00
4.377162721301143392e+03 1.778279410038922759e+00
4.738370640747062680e+03 3.162277660168379523e+00
5.213597551074403782e+03 5.623413251903491172e+00
5.896502185335339163e+03 1.000000000000000000e+01
6.956011684957142279e+03 1.778279410038922848e+01
8.491242380520905499e+03 3.162277660168379256e+01
1.037934111138438311e+04 5.623413251903490817e+01
1.263070902139860846e+04 1.000000000000000000e+02
1.537831523420485246e+04 1.778279410038922776e+02
1.865678448137127998e+04 3.162277660168379612e+02
