# Temperature (K), Pressure (bars)
1.048392822815645104e+03 5.623413251903490971e-04
1.085228474590037422e+03 1.000000000000000021e-03
1.122064127324571700e+03 1.778279410038922752e-03
1.158023957612657796e+03 3.162277660168379394e-03
1.192997633338924288e+03 5.623413251903490971e-03
1.225771851200486253e+03 1.000000000000000021e-02
1.256496577851644133e+03 1.778279410038922925e-02
1.286770448312487360e+03 3.162277660168379134e-02
1.320951211740321924e+03 5.623413251903491145e-02
1.365904187789789830e+03 1.000000000000000056e-01
1.422674299302866530e+03 1.778279410038922925e-01
1.487154212736403679e+03 3.162277660168379412e-01
1.564771592761612737e+03 5.623413251903490728e-01
1.668472985391177872e+03 1.000000000000000000e+00
1.791581923525561933e+03 1.778279410038922759e+00
1.951538653254249994e+03 3.162277660168379523e+00
2.193838153060392870e+03 5.623413251903491172e+00
2.495058811015309857e+03 1.000000000000000000e+01
2.799657282578457398e+03 1.778279410038922848e+01
3.099212237249412738e+03 3.162277660168379256e+01
3.400989954411132658e+03 5.623413251903490817e+01
3.712522980026255937e+03 1.000000000000000000e+02
4.038944414862384292e+03 1.778279410038922776e+02
4.395013582817808128e+03 3.162277660168379612e+02
