# Temperature (K), Pressure (bars)
1.128613200064227840e+03 1.000000000000000048e-04
1.162099558877620666e+03 1.778279410038922698e-04
1.195585920713779842e+03 3.162277660168379394e-04
1.233689482093705465e+03 5.623413251903490971e-04
1.276995878258192533e+03 1.000000000000000021e-03
1.324922107478312682e+03 1.778279410038922752e-03
1.376919755328740393e+03 3.162277660168379394e-03
1.434258420829062288e+03 5.623413251903490971e-03
1.498010789057932925e+03 1.000000000000000021e-02
1.568737096883082813e+03 1.778279410038922925e-02
1.646297220723193504e+03 3.162277660168379134e-02
1.738356734552421358e+03 5.623413251903491145e-02
1.860471087722475431e+03 1.000000000000000056e-01
1.999542652953455899e+03 1.778279410038922925e-01
2.163513356760821353e+03 3.162277660168379412e-01
2.381341270651198556e+03 5.623413251903490728e-01
2.615987092278245200e+03 1.000000000000000000e+00
2.837064456524923571e+03 1.778279410038922759e+00
3.055972921020989361e+03 3.162277660168379523e+00
3.279068167425010870e+03 5.623413251903491172e+00
3.511310364682185536e+03 1.000000000000000000e+01
3.757758246718281953e+03 1.778279410038922848e+01
4.025712050697418363e+03 3.162277660168379256e+01
4.320755058711939455e+03 5.623413251903490817e+01
4.649987971013259084e+03 1.000000000000000000e+02
5.017067638672696376e+03 1.778279410038922776e+02
5.442630980250894936e+03 3.162277660168379612e+02
