# Temperature (K), Pressure (bars)
1.055889383723333594e+03 5.623413251903491208e-06
1.113138637649500197e+03 1.000000000000000082e-05
1.170562396735084803e+03 1.778279410038922901e-05
1.234447726424907160e+03 3.162277660168379530e-05
1.300906992638016618e+03 5.623413251903490700e-05
1.363677675016986541e+03 1.000000000000000048e-04
1.422248406717612852e+03 1.778279410038922698e-04
1.487999373561734728e+03 3.162277660168379394e-04
1.572879866939219482e+03 5.623413251903490971e-04
1.658268957590935770e+03 1.000000000000000021e-03
1.728298716733110268e+03 1.778279410038922752e-03
1.793725651007805027e+03 3.162277660168379394e-03
1.862962225771732847e+03 5.623413251903490971e-03
1.941929004969762218e+03 1.000000000000000021e-02
2.030908265295157207e+03 1.778279410038922925e-02
2.146445389475667980e+03 3.162277660168379134e-02
2.309229366708515499e+03 5.623413251903491145e-02
2.488305952730418539e+03 1.000000000000000056e-01
2.660117360188514795e+03 1.778279410038922925e-01
2.833628419819930514e+03 3.162277660168379412e-01
3.012575108048393304e+03 5.623413251903490728e-01
3.198895430147867501e+03 1.000000000000000000e+00
3.394112028147726960e+03 1.778279410038922759e+00
3.601067275945233632e+03 3.162277660168379523e+00
3.824040133894533938e+03 5.623413251903491172e+00
4.068123342461338780e+03 1.000000000000000000e+01
4.339242690411127114e+03 1.778279410038922848e+01
4.644637594858484590e+03 3.162277660168379256e+01
4.994043476007055688e+03 5.623413251903490817e+01
5.404806153102412281e+03 1.000000000000000000e+02
5.890387679702561400e+03 1.778279410038922776e+02
6.476297548461022416e+03 3.162277660168379612e+02
