# Temperature (K), Pressure (bars)
1.345679122009799130e+03 9.999999999999999547e-07
1.393206685404770269e+03 1.778279410038922901e-06
1.440734248799741408e+03 3.162277660168379191e-06
1.496053238800803683e+03 5.623413251903491208e-06
1.560746343410945883e+03 1.000000000000000082e-05
1.627296564376857532e+03 1.778279410038922901e-05
1.691889509095401763e+03 3.162277660168379530e-05
1.758043655260966261e+03 5.623413251903490700e-05
1.828649230839026359e+03 1.000000000000000048e-04
1.903741938239973706e+03 1.778279410038922698e-04
1.983833095486092134e+03 3.162277660168379394e-04
2.073490003565294046e+03 5.623413251903490971e-04
2.179225792547415494e+03 1.000000000000000021e-03
2.299884938858847818e+03 1.778279410038922752e-03
2.428702012636289510e+03 3.162277660168379394e-03
2.563123218430569068e+03 5.623413251903490971e-03
2.704449394809153091e+03 1.000000000000000021e-02
2.855284691063751779e+03 1.778279410038922925e-02
3.019372657472560604e+03 3.162277660168379134e-02
3.204598898243082203e+03 5.623413251903491145e-02
3.394252279507505136e+03 1.000000000000000056e-01
3.598119741971041549e+03 1.778279410038922925e-01
3.834004150098044647e+03 3.162277660168379412e-01
4.104977604862428052e+03 5.623413251903490728e-01
4.442181847557574656e+03 1.000000000000000000e+00
4.907472120806362909e+03 1.778279410038922759e+00
5.621143724320237197e+03 3.162277660168379523e+00
6.736257616090202646e+03 5.623413251903491172e+00
8.301073256116029370e+03 1.000000000000000000e+01
1.000000000000000000e+04 1.778279410038922848e+01
1.000000000000000000e+04 3.162277660168379256e+01
1.000000000000000000e+04 5.623413251903490817e+01
1.000000000000000000e+04 1.000000000000000000e+02
1.000000000000000000e+04 1.778279410038922776e+02
1.000000000000000000e+04 3.162277660168379612e+02
