# Temperature (K), Pressure (bars)
1.043597776641460086e+03 3.162277660168379394e-04
1.081849491902164800e+03 5.623413251903490971e-04
1.120101203858507461e+03 1.000000000000000021e-03
1.151918655541221597e+03 1.778279410038922752e-03
1.181524890183423622e+03 3.162277660168379394e-03
1.211256075913300720e+03 5.623413251903490971e-03
1.240957804530096155e+03 1.000000000000000021e-02
1.272002549826526547e+03 1.778279410038922925e-02
1.304790308034959935e+03 3.162277660168379134e-02
1.341487175589435992e+03 5.623413251903491145e-02
1.382629100110752006e+03 1.000000000000000056e-01
1.437039797768829203e+03 1.778279410038922925e-01
1.522986607633828044e+03 3.162277660168379412e-01
1.642536922999800254e+03 5.623413251903490728e-01
1.802860948000205099e+03 1.000000000000000000e+00
2.032066177832998619e+03 1.778279410038922759e+00
2.318364500537944423e+03 3.162277660168379523e+00
2.609238877010425767e+03 5.623413251903491172e+00
2.885878618814298079e+03 1.000000000000000000e+01
3.158140232290385939e+03 1.778279410038922848e+01
3.435005702194433979e+03 3.162277660168379256e+01
3.723255594759237738e+03 5.623413251903490817e+01
4.030493214493933920e+03 1.000000000000000000e+02
4.361022434527881160e+03 1.778279410038922776e+02
4.729936525480926321e+03 3.162277660168379612e+02
