# Temperature (K), Pressure (bars)
9.001468163427636000e+02 1.778279410038922901e-05
9.474890964716294093e+02 3.162277660168379530e-05
9.948313786029514176e+02 5.623413251903490700e-05
1.043617284968561080e+03 1.000000000000000048e-04
1.093971604997696431e+03 1.778279410038922698e-04
1.145899595309868346e+03 3.162277660168379394e-04
1.200015866673578330e+03 5.623413251903490971e-04
1.257150087008022183e+03 1.000000000000000021e-03
1.319956339295227963e+03 1.778279410038922752e-03
1.396076812049867840e+03 3.162277660168379394e-03
1.513879144296335198e+03 5.623413251903490971e-03
1.703247450325545287e+03 1.000000000000000021e-02
1.940466240728819685e+03 1.778279410038922925e-02
2.174188474128834969e+03 3.162277660168379134e-02
2.384597802497838074e+03 5.623413251903491145e-02
2.577088793437277673e+03 1.000000000000000056e-01
2.759707875244408569e+03 1.778279410038922925e-01
2.938150811122408413e+03 3.162277660168379412e-01
3.116801841307206359e+03 5.623413251903490728e-01
3.300236415655719611e+03 1.000000000000000000e+00
3.493246270643433036e+03 1.778279410038922759e+00
3.700447541988298781e+03 3.162277660168379523e+00
3.926513876015438200e+03 5.623413251903491172e+00
4.176650745815351002e+03 1.000000000000000000e+01
4.457133069842673649e+03 1.778279410038922848e+01
4.776397241939876039e+03 3.162277660168379256e+01
5.149761068224260271e+03 5.623413251903490817e+01
5.588220313519207593e+03 1.000000000000000000e+02
6.112440456487640404e+03 1.778279410038922776e+02
6.751824947163483557e+03 3.162277660168379612e+02
