# Temperature (K), Pressure (bars)
2.263086556526230197e+03 9.999999999999999547e-07
2.270961428678021093e+03 1.778279410038922901e-06
2.278836300829811535e+03 3.162277660168379191e-06
2.306889355742093358e+03 5.623413251903491208e-06
2.345877141477370060e+03 1.000000000000000082e-05
2.388683359508081594e+03 1.778279410038922901e-05
2.436595245130531111e+03 3.162277660168379530e-05
2.487490101002279971e+03 5.623413251903490700e-05
2.538717246831828561e+03 1.000000000000000048e-04
2.588588727542743982e+03 1.778279410038922698e-04
2.635954180667421497e+03 3.162277660168379394e-04
2.679516422735390279e+03 5.623413251903490971e-04
2.719442902056020557e+03 1.000000000000000021e-03
2.758694669550819526e+03 1.778279410038922752e-03
2.802108898748567299e+03 3.162277660168379394e-03
2.854287548727339527e+03 5.623413251903490971e-03
2.919377327584300474e+03 1.000000000000000021e-02
2.998226297067341420e+03 1.778279410038922925e-02
3.101781530112315522e+03 3.162277660168379134e-02
3.246349666702563354e+03 5.623413251903491145e-02
3.429752233380173493e+03 1.000000000000000056e-01
3.631875437091156073e+03 1.778279410038922925e-01
3.875812337043171738e+03 3.162277660168379412e-01
4.157941471718884713e+03 5.623413251903490728e-01
4.525294583919953766e+03 1.000000000000000000e+00
5.052870558465624526e+03 1.778279410038922759e+00
5.878203731429925938e+03 3.162277660168379523e+00
7.150940613008224318e+03 5.623413251903491172e+00
8.805434466290636919e+03 1.000000000000000000e+01
1.000000000000000000e+04 1.778279410038922848e+01
1.000000000000000000e+04 3.162277660168379256e+01
1.000000000000000000e+04 5.623413251903490817e+01
1.000000000000000000e+04 1.000000000000000000e+02
1.000000000000000000e+04 1.778279410038922776e+02
1.000000000000000000e+04 3.162277660168379612e+02
