# Temperature (K), Pressure (bars)
8.704033261835496660e+02 3.162277660168379394e-04
9.212262240139507412e+02 5.623413251903490971e-04
9.720491232495695613e+02 1.000000000000000021e-03
1.022292210714050725e+03 1.778279410038922752e-03
1.071860987394755739e+03 3.162277660168379394e-03
1.121938076900896931e+03 5.623413251903490971e-03
1.173897280888260639e+03 1.000000000000000021e-02
1.229713009269195254e+03 1.778279410038922925e-02
1.293761828669831630e+03 3.162277660168379134e-02
1.370672085916437254e+03 5.623413251903491145e-02
1.471444132904824983e+03 1.000000000000000056e-01
1.615727673868310148e+03 1.778279410038922925e-01
1.824531678963296599e+03 3.162277660168379412e-01
2.088174636354704489e+03 5.623413251903490728e-01
2.358028009925784318e+03 1.000000000000000000e+00
2.610343406291006431e+03 1.778279410038922759e+00
2.851897360000617937e+03 3.162277660168379523e+00
3.088512974272280644e+03 5.623413251903491172e+00
3.327137084989648429e+03 1.000000000000000000e+01
3.574715533912878982e+03 1.778279410038922848e+01
3.839724166668562702e+03 3.162277660168379256e+01
4.127428246327458510e+03 5.623413251903490817e+01
4.444535680698716533e+03 1.000000000000000000e+02
4.794138625555549879e+03 1.778279410038922776e+02
5.195013816760573718e+03 3.162277660168379612e+02
