# Temperature (K), Pressure (bars)
1.431067261951023966e+03 1.778279410038922901e-06
1.454848508227319826e+03 3.162277660168379191e-06
1.478986270728605632e+03 5.623413251903491208e-06
1.511451541782159666e+03 1.000000000000000082e-05
1.553681933398284173e+03 1.778279410038922901e-05
1.607163246718422442e+03 3.162277660168379530e-05
1.667214639868572249e+03 5.623413251903490700e-05
1.730462095034098638e+03 1.000000000000000048e-04
1.798340190373788346e+03 1.778279410038922698e-04
1.870864622218578461e+03 3.162277660168379394e-04
1.948199554468373663e+03 5.623413251903490971e-04
2.033903133889059973e+03 1.000000000000000021e-03
2.136752214508111592e+03 1.778279410038922752e-03
2.257267985747803323e+03 3.162277660168379394e-03
2.385663178812102160e+03 5.623413251903490971e-03
2.517760148631929496e+03 1.000000000000000021e-02
2.655260229236739178e+03 1.778279410038922925e-02
2.799870216731052096e+03 3.162277660168379134e-02
2.953346652987895141e+03 5.623413251903491145e-02
3.117875133376789108e+03 1.000000000000000056e-01
3.296165381213881119e+03 1.778279410038922925e-01
3.491086189811958320e+03 3.162277660168379412e-01
3.705620968902093409e+03 5.623413251903490728e-01
3.944443100306507858e+03 1.000000000000000000e+00
4.216296139377074724e+03 1.778279410038922759e+00
4.535795798022538293e+03 3.162277660168379523e+00
4.915032420437350083e+03 5.623413251903491172e+00
5.405828688980376683e+03 1.000000000000000000e+01
6.085453902086949711e+03 1.778279410038922848e+01
7.076262962485579010e+03 3.162277660168379256e+01
8.534846199172554407e+03 5.623413251903490817e+01
1.041894840904959165e+04 1.000000000000000000e+02
1.268215000065764070e+04 1.778279410038922776e+02
1.537970475174330204e+04 3.162277660168379612e+02
