# Temperature (K), Pressure (bars)
1.076287304530481833e+03 9.999999999999999547e-07
1.119402296372606315e+03 1.778279410038922901e-06
1.162517288215867211e+03 3.162277660168379191e-06
1.216963953563650648e+03 5.623413251903491208e-06
1.281549749609689343e+03 1.000000000000000082e-05
1.347124016318339045e+03 1.778279410038922901e-05
1.411594762364544977e+03 3.162277660168379530e-05
1.474359924195206759e+03 5.623413251903490700e-05
1.541854505983762465e+03 1.000000000000000048e-04
1.626457959177856992e+03 1.778279410038922698e-04
1.718369086887969388e+03 3.162277660168379394e-04
1.802064613856444339e+03 5.623413251903490971e-04
1.877649736778000261e+03 1.000000000000000021e-03
1.953835794860035321e+03 1.778279410038922752e-03
2.036118604459107473e+03 3.162277660168379394e-03
2.137286341714670016e+03 5.623413251903490971e-03
2.269831051539164037e+03 1.000000000000000021e-02
2.416030008394281140e+03 1.778279410038922925e-02
2.562496185960104413e+03 3.162277660168379134e-02
2.713651809086800768e+03 5.623413251903491145e-02
2.871492875693167662e+03 1.000000000000000056e-01
3.037884888111425880e+03 1.778279410038922925e-01
3.214335131493271092e+03 3.162277660168379412e-01
3.401823068986607723e+03 5.623413251903490728e-01
3.601919847038798252e+03 1.000000000000000000e+00
3.818161944284268884e+03 1.778279410038922759e+00
4.056002508445730655e+03 3.162277660168379523e+00
4.322497075004973340e+03 5.623413251903491172e+00
4.627001581038726727e+03 1.000000000000000000e+01
4.983287717417877502e+03 1.778279410038922848e+01
5.410602086434793819e+03 3.162277660168379256e+01
5.936896305714490154e+03 5.623413251903490817e+01
6.606057908976753424e+03 1.000000000000000000e+02
7.491348687720581438e+03 1.778279410038922776e+02
8.721051998508030010e+03 3.162277660168379612e+02
