# Temperature (K), Pressure (bars)
1.128711738190425422e+03 9.999999999999999547e-07
1.147428729987235783e+03 1.778279410038922901e-06
1.166145721797907527e+03 3.162277660168379191e-06
1.190972612041715820e+03 5.623413251903491208e-06
1.223001085352716018e+03 1.000000000000000082e-05
1.260704788984515289e+03 1.778279410038922901e-05
1.303670798147340065e+03 3.162277660168379530e-05
1.352058516803988596e+03 5.623413251903490700e-05
1.407909069447208367e+03 1.000000000000000048e-04
1.468638673606375505e+03 1.778279410038922698e-04
1.537539551712359980e+03 3.162277660168379394e-04
1.622804238376268131e+03 5.623413251903490971e-04
1.711525353295584182e+03 1.000000000000000021e-03
1.793431727306217454e+03 1.778279410038922752e-03
1.877910420454840278e+03 3.162277660168379394e-03
1.973127951265731554e+03 5.623413251903490971e-03
2.095156151429108832e+03 1.000000000000000021e-02
2.250790515904255699e+03 1.778279410038922925e-02
2.415208968008566444e+03 3.162277660168379134e-02
2.575071702702959556e+03 5.623413251903491145e-02
2.736309545225813963e+03 1.000000000000000056e-01
2.902065380992334212e+03 1.778279410038922925e-01
3.074635041112812814e+03 3.162277660168379412e-01
3.255387040761216667e+03 5.623413251903490728e-01
3.445700756454794828e+03 1.000000000000000000e+00
3.648504024407071938e+03 1.778279410038922759e+00
3.868294379290992765e+03 3.162277660168379523e+00
4.110527074147305029e+03 5.623413251903491172e+00
4.381771044839611932e+03 1.000000000000000000e+01
4.690653651396165515e+03 1.778279410038922848e+01
5.051629248769638252e+03 3.162277660168379256e+01
5.478991204070836829e+03 5.623413251903490817e+01
5.996505905646156862e+03 1.000000000000000000e+02
6.641228534453187422e+03 1.778279410038922776e+02
7.473904303557165804e+03 3.162277660168379612e+02
