# Temperature (K), Pressure (bars)
1.151094928338971158e+03 5.623413251903490700e-05
1.194423554552811993e+03 1.000000000000000048e-04
1.237752183458292393e+03 1.778279410038922698e-04
1.284310777019186162e+03 3.162277660168379394e-04
1.335180930019772404e+03 5.623413251903490971e-04
1.390425777417094878e+03 1.000000000000000021e-03
1.452405734893130330e+03 1.778279410038922752e-03
1.519707211777918019e+03 3.162277660168379394e-03
1.595072827095858429e+03 5.623413251903490971e-03
1.688455635766577871e+03 1.000000000000000021e-02
1.787746013551487977e+03 1.778279410038922925e-02
1.887596270231384324e+03 3.162277660168379134e-02
1.995564776046838006e+03 5.623413251903491145e-02
2.138884216433229994e+03 1.000000000000000056e-01
2.341616758388440758e+03 1.778279410038922925e-01
2.555246204626717372e+03 3.162277660168379412e-01
2.750234171242536831e+03 5.623413251903490728e-01
2.943669271566516727e+03 1.000000000000000000e+00
3.141396929018842002e+03 1.778279410038922759e+00
3.346963118364969432e+03 3.162277660168379523e+00
3.563744894083833969e+03 5.623413251903491172e+00
3.795996364343935966e+03 1.000000000000000000e+01
4.048957055723199119e+03 1.778279410038922848e+01
4.330495933190728465e+03 3.162277660168379256e+01
4.646716249564681675e+03 5.623413251903490817e+01
5.006307679208630361e+03 1.000000000000000000e+02
5.413480625202563715e+03 1.778279410038922776e+02
5.896128503045651996e+03 3.162277660168379612e+02
