# Temperature (K), Pressure (bars)
8.225814875148207648e+02 5.623413251903490971e-04
8.688138213247817703e+02 1.000000000000000021e-03
9.150461567855887779e+02 1.778279410038922752e-03
9.600647200175144462e+02 3.162277660168379394e-03
1.005130991976915880e+03 5.623413251903490971e-03
1.050788557285499110e+03 1.000000000000000021e-02
1.097481736589562615e+03 1.778279410038922925e-02
1.147214303598803326e+03 3.162277660168379134e-02
1.203318108006863440e+03 5.623413251903491145e-02
1.271019465165546990e+03 1.000000000000000056e-01
1.356324934616341125e+03 1.778279410038922925e-01
1.474884189355222134e+03 3.162277660168379412e-01
1.640381110734663480e+03 5.623413251903490728e-01
1.860765206661159255e+03 1.000000000000000000e+00
2.132446579317465421e+03 1.778279410038922759e+00
2.417908400756675292e+03 3.162277660168379523e+00
2.693104514540149466e+03 5.623413251903491172e+00
2.961789397711264428e+03 1.000000000000000000e+01
3.228302486302683974e+03 1.778279410038922848e+01
3.501403853467365934e+03 3.162277660168379256e+01
3.787899310416610660e+03 5.623413251903490817e+01
4.095121437443951891e+03 1.000000000000000000e+02
4.426913797210788289e+03 1.778279410038922776e+02
4.799268503475951547e+03 3.162277660168379612e+02
