# Temperature (K), Pressure (bars)
1.854902788117057753e+03 9.999999999999999547e-07
1.902071890766041179e+03 1.778279410038922901e-06
1.949240993415024377e+03 3.162277660168379191e-06
1.995587796233733343e+03 5.623413251903491208e-06
2.040711118686423333e+03 1.000000000000000082e-05
2.082292362247416349e+03 1.778279410038922901e-05
2.120340296529737770e+03 3.162277660168379530e-05
2.157927801480506787e+03 5.623413251903490700e-05
2.197562244025432847e+03 1.000000000000000048e-04
2.241231798654556314e+03 1.778279410038922698e-04
2.290986335066217634e+03 3.162277660168379394e-04
2.348792688085392456e+03 5.623413251903490971e-04
2.416599831699893002e+03 1.000000000000000021e-03
2.498048599581599774e+03 1.778279410038922752e-03
2.595454356732958331e+03 3.162277660168379394e-03
2.705963845067995862e+03 5.623413251903490971e-03
2.827426515216477128e+03 1.000000000000000021e-02
2.961637499876788752e+03 1.778279410038922925e-02
3.113081016515217016e+03 3.162277660168379134e-02
3.291908050964162157e+03 5.623413251903491145e-02
3.480711567228071090e+03 1.000000000000000056e-01
3.706254746660129058e+03 1.778279410038922925e-01
3.963139828102947376e+03 3.162277660168379412e-01
4.283310788758751187e+03 5.623413251903490728e-01
4.732611717342791053e+03 1.000000000000000000e+00
5.438535016448429815e+03 1.778279410038922759e+00
6.544609880690166392e+03 3.162277660168379523e+00
8.085655457634498816e+03 5.623413251903491172e+00
9.798839856579961634e+03 1.000000000000000000e+01
1.000000000000000000e+04 1.778279410038922848e+01
1.000000000000000000e+04 3.162277660168379256e+01
1.000000000000000000e+04 5.623413251903490817e+01
1.000000000000000000e+04 1.000000000000000000e+02
1.000000000000000000e+04 1.778279410038922776e+02
1.000000000000000000e+04 3.162277660168379612e+02
