# Temperature (K), Pressure (bars)
9.495553191220761846e+02 5.623413251903490971e-04
1.001726066757789795e+03 1.000000000000000021e-03
1.053896816189462925e+03 1.778279410038922752e-03
1.105371683103959413e+03 3.162277660168379394e-03
1.156503938287093661e+03 5.623413251903490971e-03
1.208493878583372862e+03 1.000000000000000021e-02
1.262146198175101063e+03 1.778279410038922925e-02
1.319508795461267027e+03 3.162277660168379134e-02
1.385816775853295894e+03 5.623413251903491145e-02
1.470633697651463081e+03 1.000000000000000056e-01
1.586219482528134222e+03 1.778279410038922925e-01
1.738188334192622278e+03 3.162277660168379412e-01
1.923744585459328164e+03 5.623413251903490728e-01
2.153667148920790169e+03 1.000000000000000000e+00
2.422673094097972353e+03 1.778279410038922759e+00
2.689901397715489566e+03 3.162277660168379523e+00
2.941473454045239123e+03 5.623413251903491172e+00
3.190097590049434075e+03 1.000000000000000000e+01
3.443295201729094970e+03 1.778279410038922848e+01
3.709847211900479124e+03 3.162277660168379256e+01
3.995684198121033205e+03 5.623413251903490817e+01
4.307659502725633502e+03 1.000000000000000000e+02
4.649092839141678269e+03 1.778279410038922776e+02
5.037544517281294247e+03 3.162277660168379612e+02
