# Temperature (K), Pressure (bars)
2.117081050854018940e+03 9.999999999999999547e-07
2.130165880322143494e+03 1.778279410038922901e-06
2.143250709790268047e+03 3.162277660168379191e-06
2.155881649909329099e+03 5.623413251903491208e-06
2.165914665707270615e+03 1.000000000000000082e-05
2.173813190612838753e+03 1.778279410038922901e-05
2.183174847904581384e+03 3.162277660168379530e-05
2.196802749692571069e+03 5.623413251903490700e-05
2.215031070976890078e+03 1.000000000000000048e-04
2.236721911740945870e+03 1.778279410038922698e-04
2.260373806504122513e+03 3.162277660168379394e-04
2.284963894078339308e+03 5.623413251903490971e-04
2.310715164538417412e+03 1.000000000000000021e-03
2.338174412177592785e+03 1.778279410038922752e-03
2.368879857883888690e+03 3.162277660168379394e-03
2.403316829431963924e+03 5.623413251903490971e-03
2.445545913001496956e+03 1.000000000000000021e-02
2.492962534599915671e+03 1.778279410038922925e-02
2.561063023348156094e+03 3.162277660168379134e-02
2.677671397822993640e+03 5.623413251903491145e-02
2.819576519105452462e+03 1.000000000000000056e-01
2.965662090628926308e+03 1.778279410038922925e-01
3.124515062305290485e+03 3.162277660168379412e-01
3.299056715310278832e+03 5.623413251903490728e-01
3.490713022057302624e+03 1.000000000000000000e+00
3.700066980823309677e+03 1.778279410038922759e+00
3.928969593169092150e+03 3.162277660168379523e+00
4.181976268510248701e+03 5.623413251903491172e+00
4.466233251875760288e+03 1.000000000000000000e+01
4.791702171973287477e+03 1.778279410038922848e+01
5.173273357817071883e+03 3.162277660168379256e+01
5.631012283504736843e+03 5.623413251903490817e+01
6.196069580282655807e+03 1.000000000000000000e+02
6.918570845648633622e+03 1.778279410038922776e+02
7.879878927279088202e+03 3.162277660168379612e+02
