# Temperature (K), Pressure (bars)
1.161770658033266727e+03 3.162277660168379530e-05
1.197096485802094548e+03 5.623413251903490700e-05
1.232422316208197799e+03 1.000000000000000048e-04
1.272517526348556430e+03 1.778279410038922698e-04
1.319848947796307357e+03 3.162277660168379394e-04
1.373861123213026985e+03 5.623413251903490971e-04
1.432530713571117985e+03 1.000000000000000021e-03
1.497113543581950580e+03 1.778279410038922752e-03
1.574211691265871423e+03 3.162277660168379394e-03
1.658224126249534493e+03 5.623413251903490971e-03
1.739602478848283909e+03 1.000000000000000021e-02
1.820567973105294413e+03 1.778279410038922925e-02
1.912068166952008824e+03 3.162277660168379134e-02
2.016425231900904009e+03 5.623413251903491145e-02
2.156808333437084002e+03 1.000000000000000056e-01
2.356623663645081706e+03 1.778279410038922925e-01
2.567834721525156965e+03 3.162277660168379412e-01
2.761408029491940397e+03 5.623413251903490728e-01
2.954248198251144458e+03 1.000000000000000000e+00
3.151890617312554241e+03 1.778279410038922759e+00
3.357521237597098661e+03 3.162277660168379523e+00
3.574435280085568593e+03 5.623413251903491172e+00
3.807022994410951924e+03 1.000000000000000000e+01
4.060586174271265008e+03 1.778279410038922848e+01
4.343008167300952664e+03 3.162277660168379256e+01
4.660454904646458090e+03 5.623413251903490817e+01
5.021758810933092718e+03 1.000000000000000000e+02
5.430968531803217047e+03 1.778279410038922776e+02
5.916872474035775667e+03 3.162277660168379612e+02
