# Temperature (K), Pressure (bars)
1.726623644763316179e+03 9.999999999999999547e-07
1.747173291368981609e+03 1.778279410038922901e-06
1.767722937974646584e+03 3.162277660168379191e-06
1.796784402430136424e+03 5.623413251903491208e-06
1.833591721236168041e+03 1.000000000000000082e-05
1.874365540390455635e+03 1.778279410038922901e-05
1.919346372544735004e+03 3.162277660168379530e-05
1.967672078737077527e+03 5.623413251903490700e-05
2.018950284182374389e+03 1.000000000000000048e-04
2.073525997649155215e+03 1.778279410038922698e-04
2.131059398244783097e+03 3.162277660168379394e-04
2.192334018639057376e+03 5.623413251903490971e-04
2.259322999587050163e+03 1.000000000000000021e-03
2.338789965895197383e+03 1.778279410038922752e-03
2.435839449926618727e+03 3.162277660168379394e-03
2.546046217974704632e+03 5.623413251903490971e-03
2.665564286792702205e+03 1.000000000000000021e-02
2.795219010934589278e+03 1.778279410038922925e-02
2.936274424990920124e+03 3.162277660168379134e-02
3.090821487328740204e+03 5.623413251903491145e-02
3.262190186736982469e+03 1.000000000000000056e-01
3.457397859828766741e+03 1.778279410038922925e-01
3.657857098257456073e+03 3.162277660168379412e-01
3.888158141338411951e+03 5.623413251903490728e-01
4.157739661727086968e+03 1.000000000000000000e+00
4.472906107593777051e+03 1.778279410038922759e+00
4.875963211835514812e+03 3.162277660168379523e+00
5.432389106929841546e+03 5.623413251903491172e+00
6.252470144424155478e+03 1.000000000000000000e+01
7.481335789186411603e+03 1.778279410038922848e+01
9.173284941096133480e+03 3.162277660168379256e+01
1.000000000000000000e+04 5.623413251903490817e+01
1.000000000000000000e+04 1.000000000000000000e+02
1.000000000000000000e+04 1.778279410038922776e+02
1.000000000000000000e+04 3.162277660168379612e+02
