# Temperature (K), Pressure (bars)
2.300481498237320920e+03 9.999999999999999547e-07
2.328585650593292939e+03 1.778279410038922901e-06
2.356689803119623321e+03 3.162277660168379191e-06
2.387016366661395296e+03 5.623413251903491208e-06
2.418511625900251602e+03 1.000000000000000082e-05
2.449340901938195657e+03 1.778279410038922901e-05
2.478174373761931292e+03 3.162277660168379530e-05
2.503960423714298486e+03 5.623413251903490700e-05
2.527265950207630340e+03 1.000000000000000048e-04
2.550724309555672335e+03 1.778279410038922698e-04
2.578665663834218321e+03 3.162277660168379394e-04
2.616194194735009205e+03 5.623413251903490971e-04
2.667123316524784059e+03 1.000000000000000021e-03
2.733110724638447664e+03 1.778279410038922752e-03
2.814780975054139617e+03 3.162277660168379394e-03
2.912158080836012232e+03 5.623413251903490971e-03
3.025476350762919083e+03 1.000000000000000021e-02
3.153826264399506726e+03 1.778279410038922925e-02
3.300538307221462674e+03 3.162277660168379134e-02
3.482617738557078155e+03 5.623413251903491145e-02
3.707710064998335838e+03 1.000000000000000056e-01
3.999102156953493250e+03 1.778279410038922925e-01
4.426213221642355165e+03 3.162277660168379412e-01
5.150328757800142739e+03 5.623413251903490728e-01
6.267550581688529746e+03 1.000000000000000000e+00
7.768610856294660152e+03 1.778279410038922759e+00
9.360352630273522664e+03 3.162277660168379523e+00
1.100170598515601159e+04 5.623413251903491172e+00
1.296252366082730259e+04 1.000000000000000000e+01
1.544806165356642850e+04 1.778279410038922848e+01
1.858530752483262040e+04 3.162277660168379256e+01
2.251837961131337579e+04 5.623413251903490817e+01
2.739703358029565425e+04 1.000000000000000000e+02
3.335181170074558759e+04 1.778279410038922776e+02
4.045580341487674741e+04 3.162277660168379612e+02
