# Temperature (K), Pressure (bars)
9.271716399418921810e+02 1.000000000000000021e-03
9.776376458933034428e+02 1.778279410038922752e-03
1.028103653226789220e+03 3.162277660168379394e-03
1.076945724710883724e+03 5.623413251903490971e-03
1.125544887649792599e+03 1.000000000000000021e-02
1.175042993749210382e+03 1.778279410038922925e-02
1.226861246503537586e+03 3.162277660168379134e-02
1.283429029029405456e+03 5.623413251903491145e-02
1.349866341421654170e+03 1.000000000000000056e-01
1.437865577859000723e+03 1.778279410038922925e-01
1.566430084788936938e+03 3.162277660168379412e-01
1.734736740755495248e+03 5.623413251903490728e-01
1.942775903070671575e+03 1.000000000000000000e+00
2.201521491804353900e+03 1.778279410038922759e+00
2.480290544235434936e+03 3.162277660168379523e+00
2.750312312361959357e+03 5.623413251903491172e+00
3.014273978416923910e+03 1.000000000000000000e+01
3.277406250535539129e+03 1.778279410038922848e+01
3.548550709589553207e+03 3.162277660168379256e+01
3.834419885076668379e+03 5.623413251903490817e+01
4.142287414583201098e+03 1.000000000000000000e+02
4.475828401426281744e+03 1.778279410038922776e+02
4.851308054091052327e+03 3.162277660168379612e+02
