# Temperature (K), Pressure (bars)
8.849947822591535669e+02 5.623413251903490700e-05
9.275918620899849429e+02 1.000000000000000048e-04
9.701889415987894836e+02 1.778279410038922698e-04
1.013134923444779588e+03 3.162277660168379394e-04
1.056561061197150366e+03 5.623413251903490971e-04
1.098979519045683901e+03 1.000000000000000021e-03
1.138444977911068463e+03 1.778279410038922752e-03
1.175712776005846763e+03 3.162277660168379394e-03
1.215552404757126396e+03 5.623413251903490971e-03
1.263016626371252869e+03 1.000000000000000021e-02
1.314019884971280362e+03 1.778279410038922925e-02
1.365671475838910055e+03 3.162277660168379134e-02
1.425861213729167275e+03 5.623413251903491145e-02
1.485165798909627256e+03 1.000000000000000056e-01
1.578908545228561934e+03 1.778279410038922925e-01
1.771993337103869408e+03 3.162277660168379412e-01
2.030817851156982442e+03 5.623413251903490728e-01
2.298520507547272246e+03 1.000000000000000000e+00
2.559447977185721356e+03 1.778279410038922759e+00
2.807354989635512993e+03 3.162277660168379523e+00
3.047377644471652275e+03 5.623413251903491172e+00
3.287579729863441116e+03 1.000000000000000000e+01
3.535726833013515716e+03 1.778279410038922848e+01
3.800910034181832089e+03 3.162277660168379256e+01
4.087899830525258494e+03 5.623413251903490817e+01
4.403420154892438404e+03 1.000000000000000000e+02
4.750599916527893583e+03 1.778279410038922776e+02
5.147446600548810238e+03 3.162277660168379612e+02
