# Temperature (K), Pressure (bars)
9.621334741539554898e+02 3.162277660168379394e-04
1.010963426250925068e+03 5.623413251903490971e-04
1.059793379883231410e+03 1.000000000000000021e-03
1.108713618368120706e+03 1.778279410038922752e-03
1.158223678724037427e+03 3.162277660168379394e-03
1.209567893762960466e+03 5.623413251903490971e-03
1.263233347461699395e+03 1.000000000000000021e-02
1.322059981931637822e+03 1.778279410038922925e-02
1.391591077474491385e+03 3.162277660168379134e-02
1.477758667400768218e+03 5.623413251903491145e-02
1.582158307454074702e+03 1.000000000000000056e-01
1.710001612595358438e+03 1.778279410038922925e-01
1.857913643147154289e+03 3.162277660168379412e-01
2.046049831211191986e+03 5.623413251903490728e-01
2.299844501970148031e+03 1.000000000000000000e+00
2.567802812977930444e+03 1.778279410038922759e+00
2.814371837107564261e+03 3.162277660168379523e+00
3.054590557538793291e+03 5.623413251903491172e+00
3.295771087661703405e+03 1.000000000000000000e+01
3.544772748002503249e+03 1.778279410038922848e+01
3.810038076936071320e+03 3.162277660168379256e+01
4.097275869697185954e+03 5.623413251903490817e+01
4.413189247847189108e+03 1.000000000000000000e+02
4.760807020888128136e+03 1.778279410038922776e+02
5.158908039939973605e+03 3.162277660168379612e+02
