# Temperature (K), Pressure (bars)
2.422435542254914708e+03 1.000000000000000048e-04
2.479526545662177796e+03 1.778279410038922698e-04
2.536617773279196626e+03 3.162277660168379394e-04
2.595789613256330995e+03 5.623413251903490971e-04
2.656076634810138330e+03 1.000000000000000021e-03
2.714738846257289879e+03 1.778279410038922752e-03
2.768933608190501218e+03 3.162277660168379394e-03
2.815391409717596616e+03 5.623413251903490971e-03
2.852902016470068702e+03 1.000000000000000021e-02
2.885973464761704236e+03 1.778279410038922925e-02
2.925491950863419788e+03 3.162277660168379134e-02
2.978779607675076477e+03 5.623413251903491145e-02
3.068478459453196137e+03 1.000000000000000056e-01
3.212957067445571283e+03 1.778279410038922925e-01
3.385227799566212980e+03 3.162277660168379412e-01
3.571669825690254129e+03 5.623413251903490728e-01
3.784266862273604602e+03 1.000000000000000000e+00
4.027551213131484474e+03 1.778279410038922759e+00
4.306802912435878170e+03 3.162277660168379523e+00
4.632051770762632259e+03 5.623413251903491172e+00
5.010155338861665768e+03 1.000000000000000000e+01
5.483244665420101228e+03 1.778279410038922848e+01
6.106915409001501757e+03 3.162277660168379256e+01
6.986434485102824510e+03 5.623413251903490817e+01
8.276597461566223501e+03 1.000000000000000000e+02
1.000000000000000000e+04 1.778279410038922776e+02
1.000000000000000000e+04 3.162277660168379612e+02
