# Temperature (K), Pressure (bars)
1.067840472654534551e+03 3.162277660168379394e-04
1.119060830162756702e+03 5.623413251903490971e-04
1.170281187932613648e+03 1.000000000000000021e-03
1.210398085033294137e+03 1.778279410038922752e-03
1.245967431607328763e+03 3.162277660168379394e-03
1.277409780771530450e+03 5.623413251903490971e-03
1.318494984684719839e+03 1.000000000000000021e-02
1.392945655502622913e+03 1.778279410038922925e-02
1.492103816799380866e+03 3.162277660168379134e-02
1.611052493687351443e+03 5.623413251903491145e-02
1.739068293565599788e+03 1.000000000000000056e-01
1.849521160883705306e+03 1.778279410038922925e-01
1.944375610393984061e+03 3.162277660168379412e-01
2.046211573183571090e+03 5.623413251903490728e-01
2.168879182009246506e+03 1.000000000000000000e+00
2.351147252122087593e+03 1.778279410038922759e+00
2.611830003699636563e+03 3.162277660168379523e+00
2.885283452594279879e+03 5.623413251903491172e+00
3.139912037294174297e+03 1.000000000000000000e+01
3.396255965030413790e+03 1.778279410038922848e+01
3.663846156201789199e+03 3.162277660168379256e+01
3.949455723115797809e+03 5.623413251903490817e+01
4.260031010982719636e+03 1.000000000000000000e+02
4.599067456587925335e+03 1.778279410038922776e+02
4.983394832992774354e+03 3.162277660168379612e+02
