# Temperature (K), Pressure (bars)
1.624337850797716783e+03 9.999999999999999547e-07
1.688073967442855064e+03 1.778279410038922901e-06
1.751810085973491823e+03 3.162277660168379191e-06
1.805361199432314834e+03 5.623413251903491208e-06
1.854436767415795202e+03 1.000000000000000082e-05
1.904471338876567188e+03 1.778279410038922901e-05
1.956332192611577511e+03 3.162277660168379530e-05
2.011141300876496643e+03 5.623413251903490700e-05
2.069576291703249808e+03 1.000000000000000048e-04
2.132958047181560687e+03 1.778279410038922698e-04
2.203300664541749029e+03 3.162277660168379394e-04
2.284572371049402591e+03 5.623413251903490971e-04
2.380518833752743376e+03 1.000000000000000021e-03
2.489358508597068067e+03 1.778279410038922752e-03
2.607411835122880802e+03 3.162277660168379394e-03
2.733916528764669238e+03 5.623413251903490971e-03
2.870416582785087485e+03 1.000000000000000021e-02
3.020785540541382034e+03 1.778279410038922925e-02
3.194529916786210379e+03 3.162277660168379134e-02
3.362678199664319891e+03 5.623413251903491145e-02
3.566012926817436437e+03 1.000000000000000056e-01
3.819142829054949743e+03 1.778279410038922925e-01
4.148538581212110330e+03 3.162277660168379412e-01
4.635510303988190572e+03 5.623413251903490728e-01
5.444338925366618241e+03 1.000000000000000000e+00
6.672779477662125828e+03 1.778279410038922759e+00
8.231365725646695864e+03 3.162277660168379523e+00
9.835341090948277269e+03 5.623413251903491172e+00
1.159716914633504530e+04 1.000000000000000000e+01
1.382090314101598779e+04 1.778279410038922848e+01
1.662770002522651339e+04 3.162277660168379256e+01
2.014649801897575890e+04 5.623413251903490817e+01
2.451127888766620890e+04 1.000000000000000000e+02
2.983883476325914307e+04 1.778279410038922776e+02
3.619455650993664312e+04 3.162277660168379612e+02
