# Temperature (K), Pressure (bars)
2.193712223877664655e+03 9.999999999999999547e-07
2.195856039128964767e+03 1.778279410038922901e-06
2.197999854380265333e+03 3.162277660168379191e-06
2.221739308245508255e+03 5.623413251903491208e-06
2.256047403959737949e+03 1.000000000000000082e-05
2.293453314907288586e+03 1.778279410038922901e-05
2.336297072322757231e+03 3.162277660168379530e-05
2.383724306567746225e+03 5.623413251903490700e-05
2.434675669647392624e+03 1.000000000000000048e-04
2.487584951496442500e+03 1.778279410038922698e-04
2.539864306116890475e+03 3.162277660168379394e-04
2.589930930231051661e+03 5.623413251903490971e-04
2.636948381940950185e+03 1.000000000000000021e-03
2.679590888637705575e+03 1.778279410038922752e-03
2.718501128004203565e+03 3.162277660168379394e-03
2.758310700567748427e+03 5.623413251903490971e-03
2.805094282720821411e+03 1.000000000000000021e-02
2.862122668050514676e+03 1.778279410038922925e-02
2.926595385696312860e+03 3.162277660168379134e-02
3.017293353982101962e+03 5.623413251903491145e-02
3.156449710178195346e+03 1.000000000000000056e-01
3.325707942918223580e+03 1.778279410038922925e-01
3.514491746906207936e+03 3.162277660168379412e-01
3.732317015776869539e+03 5.623413251903490728e-01
3.982968613818549329e+03 1.000000000000000000e+00
4.275013509232105207e+03 1.778279410038922759e+00
4.599043630055223730e+03 3.162277660168379523e+00
5.004820808499657687e+03 5.623413251903491172e+00
5.545289306121380832e+03 1.000000000000000000e+01
6.327674896977200660e+03 1.778279410038922848e+01
7.524244513056345568e+03 3.162277660168379256e+01
9.189452117977420130e+03 5.623413251903490817e+01
1.000000000000000000e+04 1.000000000000000000e+02
1.000000000000000000e+04 1.778279410038922776e+02
1.000000000000000000e+04 3.162277660168379612e+02
