# Temperature (K), Pressure (bars)
1.063528581305507259e+03 3.162277660168379530e-05
1.121917897663631038e+03 5.623413251903490700e-05
1.180307218530916543e+03 1.000000000000000048e-04
1.244924272651579031e+03 1.778279410038922698e-04
1.312432684613823767e+03 3.162277660168379394e-04
1.376546584367773221e+03 5.623413251903490971e-04
1.437058064776697393e+03 1.000000000000000021e-03
1.504635890489481199e+03 1.778279410038922752e-03
1.591670464133603446e+03 3.162277660168379394e-03
1.677056018938272700e+03 5.623413251903490971e-03
1.745113671344639215e+03 1.000000000000000021e-02
1.811438070278584746e+03 1.778279410038922925e-02
1.882012858252792739e+03 3.162277660168379134e-02
1.962173524152337450e+03 5.623413251903491145e-02
2.057568844806408379e+03 1.000000000000000056e-01
2.182630103793571379e+03 1.778279410038922925e-01
2.360788177914409971e+03 3.162277660168379412e-01
2.570488371786032985e+03 5.623413251903490728e-01
2.779132294693774838e+03 1.000000000000000000e+00
2.985966256535347839e+03 1.778279410038922759e+00
3.196803553654840925e+03 3.162277660168379523e+00
3.415531256351792308e+03 5.623413251903491172e+00
3.646355200656369561e+03 1.000000000000000000e+01
3.894444074002641173e+03 1.778279410038922848e+01
4.167330467197180042e+03 3.162277660168379256e+01
4.470733075893685964e+03 5.623413251903490817e+01
4.812298449715918650e+03 1.000000000000000000e+02
5.195637602514399077e+03 1.778279410038922776e+02
5.644594568322512714e+03 3.162277660168379612e+02
