# Temperature (K), Pressure (bars)
7.237866684641979873e+02 3.162277660168379394e-04
7.610954655190413405e+02 5.623413251903490971e-04
7.984042636831459276e+02 1.000000000000000021e-03
8.350357060327521594e+02 1.778279410038922752e-03
8.718591591891314465e+02 3.162277660168379394e-03
9.097462415533374269e+02 5.623413251903490971e-03
9.489152009164506580e+02 1.000000000000000021e-02
9.909300851953438496e+02 1.778279410038922925e-02
1.039190928699154938e+03 3.162277660168379134e-02
1.098060478462298533e+03 5.623413251903491145e-02
1.174155127435794384e+03 1.000000000000000056e-01
1.274465902037816704e+03 1.778279410038922925e-01
1.413156447202604340e+03 3.162277660168379412e-01
1.608705766210914362e+03 5.623413251903490728e-01
1.858504796134719754e+03 1.000000000000000000e+00
2.137971261707357371e+03 1.778279410038922759e+00
2.421288839173674660e+03 3.162277660168379523e+00
2.696790379763787314e+03 5.623413251903491172e+00
2.964973599926714087e+03 1.000000000000000000e+01
3.230777706618329830e+03 1.778279410038922848e+01
3.503704745684317459e+03 3.162277660168379256e+01
3.790107468629337291e+03 5.623413251903490817e+01
4.097267542907694406e+03 1.000000000000000000e+02
4.429216912240272904e+03 1.778279410038922776e+02
4.801535065029302132e+03 3.162277660168379612e+02
