# Temperature (K), Pressure (bars)
8.949604164217342941e+02 3.162277660168379394e-04
9.505956114231860283e+02 5.623413251903490971e-04
1.006230807820444511e+03 1.000000000000000021e-03
1.059328123641045977e+03 1.778279410038922752e-03
1.111389798046675423e+03 3.162277660168379394e-03
1.164606342087665780e+03 5.623413251903490971e-03
1.220741123878054395e+03 1.000000000000000021e-02
1.283580848767795260e+03 1.778279410038922925e-02
1.356944151260967828e+03 3.162277660168379134e-02
1.451076689048520620e+03 5.623413251903491145e-02
1.579197706179734951e+03 1.000000000000000056e-01
1.768806219306170533e+03 1.778279410038922925e-01
2.027008178444921896e+03 3.162277660168379412e-01
2.295809037887917839e+03 5.623413251903490728e-01
2.541244066898545498e+03 1.000000000000000000e+00
2.773618579211636188e+03 1.778279410038922759e+00
2.999220491381903230e+03 3.162277660168379523e+00
3.224905183546018179e+03 5.623413251903491172e+00
3.457213358056004381e+03 1.000000000000000000e+01
3.702411069470826988e+03 1.778279410038922848e+01
3.968580697578143827e+03 3.162277660168379256e+01
4.260584506694990523e+03 5.623413251903490817e+01
4.585313418760828426e+03 1.000000000000000000e+02
4.945774701602722416e+03 1.778279410038922776e+02
5.362606122077085274e+03 3.162277660168379612e+02
