# Temperature (K), Pressure (bars)
1.028681656001567262e+03 9.999999999999999547e-07
1.029782113629472406e+03 1.778279410038922901e-06
1.030882571259565793e+03 3.162277660168379191e-06
1.037432423225450293e+03 5.623413251903491208e-06
1.050274996883404583e+03 1.000000000000000082e-05
1.069406594297926404e+03 1.778279410038922901e-05
1.095711797871604631e+03 3.162277660168379530e-05
1.128242954716288523e+03 5.623413251903490700e-05
1.166075235294345930e+03 1.000000000000000048e-04
1.209573555927423513e+03 1.778279410038922698e-04
1.257817153761295231e+03 3.162277660168379394e-04
1.309552753253837182e+03 5.623413251903490971e-04
1.365101636380254149e+03 1.000000000000000021e-03
1.426069499710912169e+03 1.778279410038922752e-03
1.493773424674542639e+03 3.162277660168379394e-03
1.571085638956314597e+03 5.623413251903490971e-03
1.662931903796189545e+03 1.000000000000000021e-02
1.772196350100512973e+03 1.778279410038922925e-02
1.920806604236207932e+03 3.162277660168379134e-02
2.119875914938965707e+03 5.623413251903491145e-02
2.329366246965128084e+03 1.000000000000000056e-01
2.523682725421001578e+03 1.778279410038922925e-01
2.710387355967055100e+03 3.162277660168379412e-01
2.895583943366866151e+03 5.623413251903490728e-01
3.083789203337226809e+03 1.000000000000000000e+00
3.278336940477674034e+03 1.778279410038922759e+00
3.482505791145521471e+03 3.162277660168379523e+00
3.700367855323340336e+03 5.623413251903491172e+00
3.936699316957684005e+03 1.000000000000000000e+01
4.196880351032822546e+03 1.778279410038922848e+01
4.487268171570250161e+03 3.162277660168379256e+01
4.816216445789714271e+03 5.623413251903490817e+01
5.198967310983112839e+03 1.000000000000000000e+02
5.645449723669130435e+03 1.778279410038922776e+02
6.175288648791417472e+03 3.162277660168379612e+02
