# Temperature (K), Pressure (bars)
8.815743621613000869e+02 3.162277660168379530e-05
9.254191572666862839e+02 5.623413251903490700e-05
9.692639519473642622e+02 1.000000000000000048e-04
1.014701353239756827e+03 1.778279410038922698e-04
1.063833798794024233e+03 3.162277660168379394e-04
1.113738006684947550e+03 5.623413251903490971e-04
1.160783995050440581e+03 1.000000000000000021e-03
1.203394648069589721e+03 1.778279410038922752e-03
1.239407251955330139e+03 3.162277660168379394e-03
1.272919992356380362e+03 5.623413251903490971e-03
1.310188143327502530e+03 1.000000000000000021e-02
1.356147100081666167e+03 1.778279410038922925e-02
1.409214143844329328e+03 3.162277660168379134e-02
1.460118733422820696e+03 5.623413251903491145e-02
1.574798933412143924e+03 1.000000000000000056e-01
1.810555428803919540e+03 1.778279410038922925e-01
2.087029632085415415e+03 3.162277660168379412e-01
2.343656296418480451e+03 5.623413251903490728e-01
2.586010750930819995e+03 1.000000000000000000e+00
2.814965303600445623e+03 1.778279410038922759e+00
3.036889257492168326e+03 3.162277660168379523e+00
3.259605598847553665e+03 5.623413251903491172e+00
3.490176655379733347e+03 1.000000000000000000e+01
3.734851045648486433e+03 1.778279410038922848e+01
4.001847653009756414e+03 3.162277660168379256e+01
4.295570048648966804e+03 5.623413251903490817e+01
4.622846355570130072e+03 1.000000000000000000e+02
4.986900909468140526e+03 1.778279410038922776e+02
5.408301706871023271e+03 3.162277660168379612e+02
