# Temperature (K), Pressure (bars)
9.978386050521144170e+02 1.778279410038922901e-06
1.045693164119196126e+03 3.162277660168379191e-06
1.093547729801269497e+03 5.623413251903491208e-06
1.163270621642053356e+03 1.000000000000000082e-05
1.258939850262535629e+03 1.778279410038922901e-05
1.379095503594341380e+03 3.162277660168379530e-05
1.532957697486780717e+03 5.623413251903490700e-05
1.669112805268061265e+03 1.000000000000000048e-04
1.752608295111812367e+03 1.778279410038922698e-04
1.810824451447939737e+03 3.162277660168379394e-04
1.859397516469158063e+03 5.623413251903490971e-04
1.902066436204893307e+03 1.000000000000000021e-03
1.942441886348584376e+03 1.778279410038922752e-03
1.983349662884714689e+03 3.162277660168379394e-03
2.027257471135033938e+03 5.623413251903490971e-03
2.076366624171689182e+03 1.000000000000000021e-02
2.133028067866192032e+03 1.778279410038922925e-02
2.201277524108120360e+03 3.162277660168379134e-02
2.284588773035618487e+03 5.623413251903491145e-02
2.404524327406459633e+03 1.000000000000000056e-01
2.572772213353228381e+03 1.778279410038922925e-01
2.754301990165095049e+03 3.162277660168379412e-01
2.932870877568412652e+03 5.623413251903490728e-01
3.119110729941242425e+03 1.000000000000000000e+00
3.314661335800795314e+03 1.778279410038922759e+00
3.521102268645342974e+03 3.162277660168379523e+00
3.741829008021266873e+03 5.623413251903491172e+00
3.981629266378945431e+03 1.000000000000000000e+01
4.246125656355095089e+03 1.778279410038922848e+01
4.542030224102758439e+03 3.162277660168379256e+01
4.878152538437962903e+03 5.623413251903490817e+01
5.270308159933634670e+03 1.000000000000000000e+02
5.729634058009676664e+03 1.778279410038922776e+02
6.277367900740010555e+03 3.162277660168379612e+02
