# Temperature (K), Pressure (bars)
2.316775828494604411e+03 9.999999999999999547e-07
2.339418720392203340e+03 1.778279410038922901e-06
2.362061612289802724e+03 3.162277660168379191e-06
2.390711007452862759e+03 5.623413251903491208e-06
2.423127273420435813e+03 1.000000000000000082e-05
2.457552507474780214e+03 1.778279410038922901e-05
2.493144428391197380e+03 3.162277660168379530e-05
2.527609849734411910e+03 5.623413251903490700e-05
2.558686538791928342e+03 1.000000000000000048e-04
2.584011540764936854e+03 1.778279410038922698e-04
2.603789835373901496e+03 3.162277660168379394e-04
2.623265731167333797e+03 5.623413251903490971e-04
2.650646485053984179e+03 1.000000000000000021e-03
2.691938586243390546e+03 1.778279410038922752e-03
2.749051073788852136e+03 3.162277660168379394e-03
2.821462330894511069e+03 5.623413251903490971e-03
2.909195860764610188e+03 1.000000000000000021e-02
3.010461113371836746e+03 1.778279410038922925e-02
3.129546199193583561e+03 3.162277660168379134e-02
3.278722519217863919e+03 5.623413251903491145e-02
3.462841668628750995e+03 1.000000000000000056e-01
3.672520739449725170e+03 1.778279410038922925e-01
3.930196940121495118e+03 3.162277660168379412e-01
4.232245522151004479e+03 5.623413251903490728e-01
4.642946251479164857e+03 1.000000000000000000e+00
5.276897995279651695e+03 1.778279410038922759e+00
6.320006450886169659e+03 3.162277660168379523e+00
7.807201443193161140e+03 5.623413251903491172e+00
9.521795605334893480e+03 1.000000000000000000e+01
1.000000000000000000e+04 1.778279410038922848e+01
1.000000000000000000e+04 3.162277660168379256e+01
1.000000000000000000e+04 5.623413251903490817e+01
1.000000000000000000e+04 1.000000000000000000e+02
1.000000000000000000e+04 1.778279410038922776e+02
1.000000000000000000e+04 3.162277660168379612e+02
