# Temperature (K), Pressure (bars)
2.226490894861984088e+03 9.999999999999999547e-07
2.250877222020340014e+03 1.778279410038922901e-06
2.275263549178696849e+03 3.162277660168379191e-06
2.297457955681434669e+03 5.623413251903491208e-06
2.318955418580728292e+03 1.000000000000000082e-05
2.339162963200431022e+03 1.778279410038922901e-05
2.353013520493911528e+03 3.162277660168379530e-05
2.357708668267812754e+03 5.623413251903490700e-05
2.359162139302110972e+03 1.000000000000000048e-04
2.367093156942706173e+03 1.778279410038922698e-04
2.386263854309431281e+03 3.162277660168379394e-04
2.416481132594537939e+03 5.623413251903490971e-04
2.456492038088874779e+03 1.000000000000000021e-03
2.505854152183007045e+03 1.778279410038922752e-03
2.565061281595138553e+03 3.162277660168379394e-03
2.635924314750360281e+03 5.623413251903490971e-03
2.717989776557627920e+03 1.000000000000000021e-02
2.814808105455215809e+03 1.778279410038922925e-02
2.933327718061480482e+03 3.162277660168379134e-02
3.070090327794674067e+03 5.623413251903491145e-02
3.223519322971464135e+03 1.000000000000000056e-01
3.399575067215063882e+03 1.778279410038922925e-01
3.603511419365447182e+03 3.162277660168379412e-01
3.840823367136974866e+03 5.623413251903490728e-01
4.121743133715597651e+03 1.000000000000000000e+00
4.425092458945655380e+03 1.778279410038922759e+00
4.806794016397931046e+03 3.162277660168379523e+00
5.322765104245962902e+03 5.623413251903491172e+00
6.090678624126699106e+03 1.000000000000000000e+01
7.289398898343113615e+03 1.778279410038922848e+01
8.939293801843637993e+03 3.162277660168379256e+01
1.090864425535323244e+04 5.623413251903490817e+01
1.327482254689486035e+04 1.000000000000000000e+02
1.616254522675040062e+04 1.778279410038922776e+02
1.960820274351007538e+04 3.162277660168379612e+02
