# Temperature (K), Pressure (bars)
1.089646802102528454e+03 1.000000000000000082e-05
1.118287451030200145e+03 1.778279410038922901e-05
1.151736483360188231e+03 3.162277660168379530e-05
1.189618731687826312e+03 5.623413251903490700e-05
1.232853146453908039e+03 1.000000000000000048e-04
1.281777419872567634e+03 1.778279410038922698e-04
1.339349384237075810e+03 3.162277660168379394e-04
1.406153892950188038e+03 5.623413251903490971e-04
1.478048316827218514e+03 1.000000000000000021e-03
1.558156432732287158e+03 1.778279410038922752e-03
1.647560133378287674e+03 3.162277660168379394e-03
1.736907137475792979e+03 5.623413251903490971e-03
1.830172523180835924e+03 1.000000000000000021e-02
1.931549295514222194e+03 1.778279410038922925e-02
2.064402372291525353e+03 3.162277660168379134e-02
2.251682876074063643e+03 5.623413251903491145e-02
2.448707731505059201e+03 1.000000000000000056e-01
2.628646285226667260e+03 1.778279410038922925e-01
2.806828049066351923e+03 3.162277660168379412e-01
2.988013738965810262e+03 5.623413251903490728e-01
3.174685822003352769e+03 1.000000000000000000e+00
3.369037302878404262e+03 1.778279410038922759e+00
3.574486025982873798e+03 3.162277660168379523e+00
3.795553426889244747e+03 5.623413251903491172e+00
4.037276231793784973e+03 1.000000000000000000e+01
4.305364766115510065e+03 1.778279410038922848e+01
4.606790421195130875e+03 3.162277660168379256e+01
4.950927705422334839e+03 5.623413251903490817e+01
5.354640559576932901e+03 1.000000000000000000e+02
5.830414274864513573e+03 1.778279410038922776e+02
6.402246348035835581e+03 3.162277660168379612e+02
