# Temperature (K), Pressure (bars)
1.010874398916272526e+03 3.162277660168379530e-05
1.077187114387664906e+03 5.623413251903490700e-05
1.143499840272349047e+03 1.000000000000000048e-04
1.222170074832012688e+03 1.778279410038922698e-04
1.325432820354360047e+03 3.162277660168379394e-04
1.478617275404245902e+03 5.623413251903490971e-04
1.612687315517247725e+03 1.000000000000000021e-03
1.682797766331384082e+03 1.778279410038922752e-03
1.731145985773581288e+03 3.162277660168379394e-03
1.778051347358356225e+03 5.623413251903490971e-03
1.819372428126373507e+03 1.000000000000000021e-02
1.852739647275740026e+03 1.778279410038922925e-02
1.883254186332953395e+03 3.162277660168379134e-02
1.916716673211602256e+03 5.623413251903491145e-02
1.958426053030507546e+03 1.000000000000000056e-01
2.011030867414625845e+03 1.778279410038922925e-01
2.082620188055869221e+03 3.162277660168379412e-01
2.172138115687201662e+03 5.623413251903490728e-01
2.320122206736197313e+03 1.000000000000000000e+00
2.567185312605787658e+03 1.778279410038922759e+00
2.834372020568618154e+03 3.162277660168379523e+00
3.075107670864481406e+03 5.623413251903491172e+00
3.316211698024336783e+03 1.000000000000000000e+01
3.565726603718716433e+03 1.778279410038922848e+01
3.831311886133409189e+03 3.162277660168379256e+01
4.119224246278155078e+03 5.623413251903490817e+01
4.436322610061244632e+03 1.000000000000000000e+02
4.785763341667057830e+03 1.778279410038922776e+02
5.186277281279344606e+03 3.162277660168379612e+02
