# Temperature (K), Pressure (bars)
1.095575618372307872e+03 3.162277660168379394e-04
1.129021169584708332e+03 5.623413251903490971e-04
1.162466720118142803e+03 1.000000000000000021e-03
1.191702505395154958e+03 1.778279410038922752e-03
1.217469858795089749e+03 3.162277660168379394e-03
1.244615345870847477e+03 5.623413251903490971e-03
1.284265898938462442e+03 1.000000000000000021e-02
1.343542471882324207e+03 1.778279410038922925e-02
1.410832531466721548e+03 3.162277660168379134e-02
1.491292186106737745e+03 5.623413251903491145e-02
1.600156303843163414e+03 1.000000000000000056e-01
1.705777488488140762e+03 1.778279410038922925e-01
1.801783359195532285e+03 3.162277660168379412e-01
1.909000825997350148e+03 5.623413251903490728e-01
2.066047385875495820e+03 1.000000000000000000e+00
2.315801430113425795e+03 1.778279410038922759e+00
2.597148006923949197e+03 3.162277660168379523e+00
2.858478091887443497e+03 5.623413251903491172e+00
3.114126802029899409e+03 1.000000000000000000e+01
3.371500968261721027e+03 1.778279410038922848e+01
3.639529101955140959e+03 3.162277660168379256e+01
3.924902732424805436e+03 5.623413251903490817e+01
4.234629443787927812e+03 1.000000000000000000e+02
4.571904482791467672e+03 1.778279410038922776e+02
4.953995745497101780e+03 3.162277660168379612e+02
