# Temperature (K), Pressure (bars)
9.758552778998965778e+02 5.623413251903491208e-06
1.019982872975673672e+03 1.000000000000000082e-05
1.064110467998316608e+03 1.778279410038922901e-05
1.108676852659966698e+03 3.162277660168379530e-05
1.155101763220965722e+03 5.623413251903490700e-05
1.205231395478336253e+03 1.000000000000000048e-04
1.259794315434526879e+03 1.778279410038922698e-04
1.319608183272424412e+03 3.162277660168379394e-04
1.390422700273073815e+03 5.623413251903490971e-04
1.481202008401643297e+03 1.000000000000000021e-03
1.592748470958642656e+03 1.778279410038922752e-03
1.717459320804509616e+03 3.162277660168379394e-03
1.864035789215546629e+03 5.623413251903490971e-03
2.042805905318468604e+03 1.000000000000000021e-02
2.230788625162129392e+03 1.778279410038922925e-02
2.409245306974033610e+03 3.162277660168379134e-02
2.581786406728918337e+03 5.623413251903491145e-02
2.752632063032257520e+03 1.000000000000000056e-01
2.924870436039730066e+03 1.778279410038922925e-01
3.100411319981593806e+03 3.162277660168379412e-01
3.281134917302263602e+03 5.623413251903490728e-01
3.470323530832915367e+03 1.000000000000000000e+00
3.672463539603432764e+03 1.778279410038922759e+00
3.892519083730741841e+03 3.162277660168379523e+00
4.136013049721471361e+03 5.623413251903491172e+00
4.409624881805189943e+03 1.000000000000000000e+01
4.722314814939807547e+03 1.778279410038922848e+01
5.089193903776896150e+03 3.162277660168379256e+01
5.524824213406718627e+03 5.623413251903490817e+01
6.053854412461399079e+03 1.000000000000000000e+02
6.714545333250434851e+03 1.778279410038922776e+02
7.569351992568270362e+03 3.162277660168379612e+02
