# Temperature (K), Pressure (bars)
7.464135718931568135e+02 5.623413251903490700e-05
7.928629561185059629e+02 1.000000000000000048e-04
8.393123413110846514e+02 1.778279410038922698e-04
8.847539065297928573e+02 3.162277660168379394e-04
9.302665175965520348e+02 5.623413251903490971e-04
9.778123833426864167e+02 1.000000000000000021e-03
1.029573785915204553e+03 1.778279410038922752e-03
1.088663894982594002e+03 3.162277660168379394e-03
1.157399703772985049e+03 5.623413251903490971e-03
1.241891810466358947e+03 1.000000000000000021e-02
1.346922703957105114e+03 1.778279410038922925e-02
1.501957638844084613e+03 3.162277660168379134e-02
1.732659154596552526e+03 5.623413251903491145e-02
1.993774054793164851e+03 1.000000000000000056e-01
2.242779529168388308e+03 1.778279410038922925e-01
2.473405842370877053e+03 3.162277660168379412e-01
2.685137898315799703e+03 5.623413251903490728e-01
2.886109363241985648e+03 1.000000000000000000e+00
3.084604405846132977e+03 1.778279410038922759e+00
3.287473920742170776e+03 3.162277660168379523e+00
3.500297506097369478e+03 5.623413251903491172e+00
3.728008582828726958e+03 1.000000000000000000e+01
3.975744571854901551e+03 1.778279410038922848e+01
4.251728415153696005e+03 3.162277660168379256e+01
4.560339578515774519e+03 5.623413251903490817e+01
4.909526558815188764e+03 1.000000000000000000e+02
5.303015946106132105e+03 1.778279410038922776e+02
5.766443179858864823e+03 3.162277660168379612e+02
