# Temperature (K), Pressure (bars)
1.728509901197633781e+03 1.778279410038922901e-05
1.763862106112911761e+03 3.162277660168379530e-05
1.799214312382674734e+03 5.623413251903490700e-05
1.827945829216998163e+03 1.000000000000000048e-04
1.857425553073460151e+03 1.778279410038922698e-04
1.893719206457001746e+03 3.162277660168379394e-04
1.935406996141078935e+03 5.623413251903490971e-04
1.979772025813104392e+03 1.000000000000000021e-03
2.025359409314871527e+03 1.778279410038922752e-03
2.068572320140872762e+03 3.162277660168379394e-03
2.106400958320504287e+03 5.623413251903490971e-03
2.138981637121343283e+03 1.000000000000000021e-02
2.167252401192643902e+03 1.778279410038922925e-02
2.193102549806556908e+03 3.162277660168379134e-02
2.220339295721925737e+03 5.623413251903491145e-02
2.254420675050643240e+03 1.000000000000000056e-01
2.301485597412904099e+03 1.778279410038922925e-01
2.367173406301310479e+03 3.162277660168379412e-01
2.457156181448975985e+03 5.623413251903490728e-01
2.604695635069008404e+03 1.000000000000000000e+00
2.820465384931661902e+03 1.778279410038922759e+00
3.050804823132614729e+03 3.162277660168379523e+00
3.274481304587855902e+03 5.623413251903491172e+00
3.507571877777970712e+03 1.000000000000000000e+01
3.755185440941752859e+03 1.778279410038922848e+01
4.023388619644968912e+03 3.162277660168379256e+01
4.318495545647318067e+03 5.623413251903490817e+01
4.647707153347550047e+03 1.000000000000000000e+02
5.014162058713992337e+03 1.778279410038922776e+02
5.439253041780535568e+03 3.162277660168379612e+02
