# Temperature (K), Pressure (bars)
2.135073109376686261e+03 1.778279410038922901e-06
2.140109984494217770e+03 3.162277660168379191e-06
2.145146862920526928e+03 5.623413251903491208e-06
2.161003726672360699e+03 1.000000000000000082e-05
2.182641753514667471e+03 1.778279410038922901e-05
2.208341795099590854e+03 3.162277660168379530e-05
2.241346016743043037e+03 5.623413251903490700e-05
2.283285264684277536e+03 1.000000000000000048e-04
2.335261724064873761e+03 1.778279410038922698e-04
2.395579292347285445e+03 3.162277660168379394e-04
2.461282552612412928e+03 5.623413251903490971e-04
2.529458249733428602e+03 1.000000000000000021e-03
2.598869582611217993e+03 1.778279410038922752e-03
2.668495646627224232e+03 3.162277660168379394e-03
2.735470770813026320e+03 5.623413251903490971e-03
2.793157297783309332e+03 1.000000000000000021e-02
2.841785924513712416e+03 1.778279410038922925e-02
2.873627045003427611e+03 3.162277660168379134e-02
2.921035455151581118e+03 5.623413251903491145e-02
3.042457307651658994e+03 1.000000000000000056e-01
3.204826094984158772e+03 1.778279410038922925e-01
3.374757312626793464e+03 3.162277660168379412e-01
3.567193493370968554e+03 5.623413251903490728e-01
3.785287320844774513e+03 1.000000000000000000e+00
4.031436719313743652e+03 1.778279410038922759e+00
4.311286937165123163e+03 3.162277660168379523e+00
4.636262712037214442e+03 5.623413251903491172e+00
5.016100940213624199e+03 1.000000000000000000e+01
5.492875601602856477e+03 1.778279410038922848e+01
6.125552712086144311e+03 3.162277660168379256e+01
7.023705317445624132e+03 5.623413251903490817e+01
8.338907767474898719e+03 1.000000000000000000e+02
1.000000000000000000e+04 1.778279410038922776e+02
1.000000000000000000e+04 3.162277660168379612e+02
