# Temperature (K), Pressure (bars)
2.345142021414322244e+03 9.999999999999999547e-07
2.370003175449757691e+03 1.778279410038922901e-06
2.394864329485193593e+03 3.162277660168379191e-06
2.424754678929894908e+03 5.623413251903491208e-06
2.457519740604145682e+03 1.000000000000000082e-05
2.492674402544217173e+03 1.778279410038922901e-05
2.530514480298059425e+03 3.162277660168379530e-05
2.569875565569342143e+03 5.623413251903490700e-05
2.611117092402655089e+03 1.000000000000000048e-04
2.653345181511579995e+03 1.778279410038922698e-04
2.693896759887117696e+03 3.162277660168379394e-04
2.729487019608939136e+03 5.623413251903490971e-04
2.757364667112571624e+03 1.000000000000000021e-03
2.779717325687058747e+03 1.778279410038922752e-03
2.805101046903105271e+03 3.162277660168379394e-03
2.842943268215088665e+03 5.623413251903490971e-03
2.898092621987929306e+03 1.000000000000000021e-02
2.970704237438151722e+03 1.778279410038922925e-02
3.059327545733692659e+03 3.162277660168379134e-02
3.173414864816289992e+03 5.623413251903491145e-02
3.324196086135665610e+03 1.000000000000000056e-01
3.508129000491069291e+03 1.778279410038922925e-01
3.726324151847186840e+03 3.162277660168379412e-01
3.994498825476172897e+03 5.623413251903490728e-01
4.285633708301298611e+03 1.000000000000000000e+00
4.656325295869027286e+03 1.778279410038922759e+00
5.170972700455899030e+03 3.162277660168379523e+00
5.965619166800461244e+03 5.623413251903491172e+00
7.209705432374638804e+03 1.000000000000000000e+01
8.864509182471623717e+03 1.778279410038922848e+01
1.000000000000000000e+04 3.162277660168379256e+01
1.000000000000000000e+04 5.623413251903490817e+01
1.000000000000000000e+04 1.000000000000000000e+02
1.000000000000000000e+04 1.778279410038922776e+02
1.000000000000000000e+04 3.162277660168379612e+02
