# Temperature (K), Pressure (bars)
1.158479539512431529e+03 9.999999999999999547e-07
1.203316097748907850e+03 1.778279410038922901e-06
1.248152655991486654e+03 3.162277660168379191e-06
1.294725540464901769e+03 5.623413251903491208e-06
1.343611565198067638e+03 1.000000000000000082e-05
1.398174976875071252e+03 1.778279410038922901e-05
1.460019156115979968e+03 3.162277660168379530e-05
1.530061632152111542e+03 5.623413251903490700e-05
1.610573173367860818e+03 1.000000000000000048e-04
1.695296402825220412e+03 1.778279410038922698e-04
1.779974920387500788e+03 3.162277660168379394e-04
1.869218526736549393e+03 5.623413251903490971e-04
1.969482817658205931e+03 1.000000000000000021e-03
2.089402669509421685e+03 1.778279410038922752e-03
2.227495701411697155e+03 3.162277660168379394e-03
2.372693192498270037e+03 5.623413251903490971e-03
2.520748581245249625e+03 1.000000000000000021e-02
2.673469239115824621e+03 1.778279410038922925e-02
2.833081966060869036e+03 3.162277660168379134e-02
3.001877210451200881e+03 5.623413251903491145e-02
3.181907603303736323e+03 1.000000000000000056e-01
3.374700396954400730e+03 1.778279410038922925e-01
3.582465709844596859e+03 3.162277660168379412e-01
3.810652166206031325e+03 5.623413251903490728e-01
4.068920224435046293e+03 1.000000000000000000e+00
4.372316285790273469e+03 1.778279410038922759e+00
4.730710076224761906e+03 3.162277660168379523e+00
5.199855547012703028e+03 5.623413251903491172e+00
5.863096916007511027e+03 1.000000000000000000e+01
6.863121940287162033e+03 1.778279410038922848e+01
8.347384224009992977e+03 3.162277660168379256e+01
1.020638746895585246e+04 5.623413251903490817e+01
1.241762262858412032e+04 1.000000000000000000e+02
1.511660780593844538e+04 1.778279410038922776e+02
1.833647056969818732e+04 3.162277660168379612e+02
