# Temperature (K), Pressure (bars)
9.110130660262349238e+02 3.162277660168379530e-05
9.631930201514368264e+02 5.623413251903490700e-05
1.015372976179029251e+03 1.000000000000000048e-04
1.066267703155030858e+03 1.778279410038922698e-04
1.117337507831652829e+03 3.162277660168379394e-04
1.169844433808042595e+03 5.623413251903490971e-04
1.224707451813989110e+03 1.000000000000000021e-03
1.282731798109784222e+03 1.778279410038922752e-03
1.345420219790878264e+03 3.162277660168379394e-03
1.417410154815604983e+03 5.623413251903490971e-03
1.505877967538753865e+03 1.000000000000000021e-02
1.619373079086016560e+03 1.778279410038922925e-02
1.761553488543529284e+03 3.162277660168379134e-02
1.947052230464253171e+03 5.623413251903491145e-02
2.175815328508871517e+03 1.000000000000000056e-01
2.401860905753211227e+03 1.778279410038922925e-01
2.605385079502646477e+03 3.162277660168379412e-01
2.800571684193377223e+03 5.623413251903490728e-01
2.993884434904699901e+03 1.000000000000000000e+00
3.189965230565789170e+03 1.778279410038922759e+00
3.393221859196425157e+03 3.162277660168379523e+00
3.608394712307571353e+03 5.623413251903491172e+00
3.840373323170887488e+03 1.000000000000000000e+01
4.094467079141188151e+03 1.778279410038922848e+01
4.379099910728600662e+03 3.162277660168379256e+01
4.699855836931913473e+03 5.623413251903490817e+01
5.065764818296895101e+03 1.000000000000000000e+02
5.481704972269947575e+03 1.778279410038922776e+02
5.976357327684785560e+03 3.162277660168379612e+02
