# Temperature (K), Pressure (bars)
2.145715406189858186e+03 9.999999999999999547e-07
2.172926162336435027e+03 1.778279410038922901e-06
2.200136918483012778e+03 3.162277660168379191e-06
2.238427811249852311e+03 5.623413251903491208e-06
2.282461972518278799e+03 1.000000000000000082e-05
2.329094055699591991e+03 1.778279410038922901e-05
2.378767802200086862e+03 3.162277660168379530e-05
2.429338079828885839e+03 5.623413251903490700e-05
2.479300665032495544e+03 1.000000000000000048e-04
2.527055638594510128e+03 1.778279410038922698e-04
2.571508655564503897e+03 3.162277660168379394e-04
2.612576657053365579e+03 5.623413251903490971e-04
2.651093110325702582e+03 1.000000000000000021e-03
2.689877807245530221e+03 1.778279410038922752e-03
2.733980277937187566e+03 3.162277660168379394e-03
2.787381780338509543e+03 5.623413251903490971e-03
2.853055524734734263e+03 1.000000000000000021e-02
2.925562555211002291e+03 1.778279410038922925e-02
3.016023120064932300e+03 3.162277660168379134e-02
3.150680493174811090e+03 5.623413251903491145e-02
3.322603079461241123e+03 1.000000000000000056e-01
3.507342199775917834e+03 1.778279410038922925e-01
3.719831918197962750e+03 3.162277660168379412e-01
3.970616103943142662e+03 5.623413251903490728e-01
4.255571087238326982e+03 1.000000000000000000e+00
4.611235270362685696e+03 1.778279410038922759e+00
5.092775642411298577e+03 3.162277660168379523e+00
5.811267768551798326e+03 5.623413251903491172e+00
6.943493896626003334e+03 1.000000000000000000e+01
8.533747445278386294e+03 1.778279410038922848e+01
1.000000000000000000e+04 3.162277660168379256e+01
1.000000000000000000e+04 5.623413251903490817e+01
1.000000000000000000e+04 1.000000000000000000e+02
1.000000000000000000e+04 1.778279410038922776e+02
1.000000000000000000e+04 3.162277660168379612e+02
