# Temperature (K), Pressure (bars)
1.020108434066242580e+03 3.162277660168379394e-04
1.078613031817993487e+03 5.623413251903490971e-04
1.137117630990826228e+03 1.000000000000000021e-03
1.190480104837644376e+03 1.778279410038922752e-03
1.240755321133206053e+03 3.162277660168379394e-03
1.292693662428222524e+03 5.623413251903490971e-03
1.351682162418711187e+03 1.000000000000000021e-02
1.427576440986891384e+03 1.778279410038922925e-02
1.516047847300312242e+03 3.162277660168379134e-02
1.607986930168752679e+03 5.623413251903491145e-02
1.715250009776318393e+03 1.000000000000000056e-01
1.830600493000926690e+03 1.778279410038922925e-01
1.950333884774972148e+03 3.162277660168379412e-01
2.084439036527938242e+03 5.623413251903490728e-01
2.264776920942227662e+03 1.000000000000000000e+00
2.519431848185825402e+03 1.778279410038922759e+00
2.786707061255141070e+03 3.162277660168379523e+00
3.030359115404487056e+03 5.623413251903491172e+00
3.273338363036309602e+03 1.000000000000000000e+01
3.523685181067603935e+03 1.778279410038922848e+01
3.789274325801652139e+03 3.162277660168379256e+01
4.076218935724664334e+03 5.623413251903490817e+01
4.391313593009616852e+03 1.000000000000000000e+02
4.737700200088467682e+03 1.778279410038922776e+02
5.133661019406043124e+03 3.162277660168379612e+02
