# Temperature (K), Pressure (bars)
2.100025439402282245e+03 3.162277660168379191e-06
2.104474419586987551e+03 5.623413251903491208e-06
2.108923400386082449e+03 1.000000000000000082e-05
2.114898657247719257e+03 1.778279410038922901e-05
2.125872657635020005e+03 3.162277660168379530e-05
2.145435136728485304e+03 5.623413251903490700e-05
2.174792700482897089e+03 1.000000000000000048e-04
2.212085676753425560e+03 1.778279410038922698e-04
2.255329023150497960e+03 3.162277660168379394e-04
2.303381794376957714e+03 5.623413251903490971e-04
2.353180201486547958e+03 1.000000000000000021e-03
2.400932841558166729e+03 1.778279410038922752e-03
2.444686559458221836e+03 3.162277660168379394e-03
2.483031623745594061e+03 5.623413251903490971e-03
2.516592262708760245e+03 1.000000000000000021e-02
2.548562433539146241e+03 1.778279410038922925e-02
2.587031009418556550e+03 3.162277660168379134e-02
2.636667778780880781e+03 5.623413251903491145e-02
2.720564572445212889e+03 1.000000000000000056e-01
2.859896083889641886e+03 1.778279410038922925e-01
3.022027083196548574e+03 3.162277660168379412e-01
3.187833174898958987e+03 5.623413251903490728e-01
3.368988288082900908e+03 1.000000000000000000e+00
3.567913752058576847e+03 1.778279410038922759e+00
3.785793581854830336e+03 3.162277660168379523e+00
4.024983459544543166e+03 5.623413251903491172e+00
4.290240860752928711e+03 1.000000000000000000e+01
4.588827807604660848e+03 1.778279410038922848e+01
4.930892127913331933e+03 3.162277660168379256e+01
5.332699865507297545e+03 5.623413251903490817e+01
5.812490707365061098e+03 1.000000000000000000e+02
6.399815232445730544e+03 1.778279410038922776e+02
7.140550448725395654e+03 3.162277660168379612e+02
