# Temperature (K), Pressure (bars)
9.534862487716568467e+02 3.162277660168379394e-04
9.978070483027771616e+02 5.623413251903490971e-04
1.042127849504293408e+03 1.000000000000000021e-03
1.086644020778257300e+03 1.778279410038922752e-03
1.132402116906925357e+03 3.162277660168379394e-03
1.180217790075294943e+03 5.623413251903490971e-03
1.230743232666468884e+03 1.000000000000000021e-02
1.284484051445751220e+03 1.778279410038922925e-02
1.345333958999272909e+03 3.162277660168379134e-02
1.417812136906451997e+03 5.623413251903491145e-02
1.508612223720953807e+03 1.000000000000000056e-01
1.622197597985772063e+03 1.778279410038922925e-01
1.757354857981348232e+03 3.162277660168379412e-01
1.912017520941355087e+03 5.623413251903490728e-01
2.114343870647876884e+03 1.000000000000000000e+00
2.381668254758686089e+03 1.778279410038922759e+00
2.658151695755081619e+03 3.162277660168379523e+00
2.913462852249680964e+03 5.623413251903491172e+00
3.164435008851205566e+03 1.000000000000000000e+01
3.418967777170559202e+03 1.778279410038922848e+01
3.685818712062996383e+03 3.162277660168379256e+01
3.971363840673331197e+03 5.623413251903490817e+01
4.282508092834039417e+03 1.000000000000000000e+02
4.622669181621551616e+03 1.778279410038922776e+02
5.008792713043892036e+03 3.162277660168379612e+02
