# Temperature (K), Pressure (bars)
1.015181780627918897e+03 3.162277660168379394e-04
1.067681593528269332e+03 5.623413251903490971e-04
1.120181407387073477e+03 1.000000000000000021e-03
1.169551189756685289e+03 1.778279410038922752e-03
1.211481359769586334e+03 3.162277660168379394e-03
1.246033698688488130e+03 5.623413251903490971e-03
1.277946685454525095e+03 1.000000000000000021e-02
1.311232548538835772e+03 1.778279410038922925e-02
1.346641766081981586e+03 3.162277660168379134e-02
1.382546780087091065e+03 5.623413251903491145e-02
1.418907206248209604e+03 1.000000000000000056e-01
1.471730242755112386e+03 1.778279410038922925e-01
1.554742011313978310e+03 3.162277660168379412e-01
1.665106381747474870e+03 5.623413251903490728e-01
1.803518470207409109e+03 1.000000000000000000e+00
1.976123090040559873e+03 1.778279410038922759e+00
2.210593820101277743e+03 3.162277660168379523e+00
2.502922231703884790e+03 5.623413251903491172e+00
2.797704701374928845e+03 1.000000000000000000e+01
3.077750508591032485e+03 1.778279410038922848e+01
3.359120233233786621e+03 3.162277660168379256e+01
3.649388198690711761e+03 5.623413251903490817e+01
3.956434960221665278e+03 1.000000000000000000e+02
4.284225781088742224e+03 1.778279410038922776e+02
4.648625046035941523e+03 3.162277660168379612e+02
