# Temperature (K), Pressure (bars)
2.308297146295385119e+03 9.999999999999999547e-07
2.326023710132767974e+03 1.778279410038922901e-06
2.343750273970150829e+03 3.162277660168379191e-06
2.372142992996451540e+03 5.623413251903491208e-06
2.406509850293211912e+03 1.000000000000000082e-05
2.442619799804009290e+03 1.778279410038922901e-05
2.480641967466404822e+03 3.162277660168379530e-05
2.518516211461884723e+03 5.623413251903490700e-05
2.553387129347015161e+03 1.000000000000000048e-04
2.582124234102651371e+03 1.778279410038922698e-04
2.603725400935982179e+03 3.162277660168379394e-04
2.623215625843886301e+03 5.623413251903490971e-04
2.650008321396948759e+03 1.000000000000000021e-03
2.691203421828887258e+03 1.778279410038922752e-03
2.748757971659486429e+03 3.162277660168379394e-03
2.820748650008523327e+03 5.623413251903490971e-03
2.905237362522177136e+03 1.000000000000000021e-02
2.997179808572002912e+03 1.778279410038922925e-02
3.105451355171355317e+03 3.162277660168379134e-02
3.251488063154596603e+03 5.623413251903491145e-02
3.435738707079628512e+03 1.000000000000000056e-01
3.640327289586238294e+03 1.778279410038922925e-01
3.888515533351063368e+03 3.162277660168379412e-01
4.172394615098359282e+03 5.623413251903490728e-01
4.544798545485018622e+03 1.000000000000000000e+00
5.091055609616371839e+03 1.778279410038922759e+00
5.986576789534675299e+03 3.162277660168379523e+00
7.352127990388345097e+03 5.623413251903491172e+00
9.036105839565010683e+03 1.000000000000000000e+01
1.000000000000000000e+04 1.778279410038922848e+01
1.000000000000000000e+04 3.162277660168379256e+01
1.000000000000000000e+04 5.623413251903490817e+01
1.000000000000000000e+04 1.000000000000000000e+02
1.000000000000000000e+04 1.778279410038922776e+02
1.000000000000000000e+04 3.162277660168379612e+02
