# Temperature (K), Pressure (bars)
7.816957305338153219e+02 5.623413251903490971e-04
8.208690141128668074e+02 1.000000000000000021e-03
8.600422985844327286e+02 1.778279410038922752e-03
8.990065764621959943e+02 3.162277660168379394e-03
9.379620749384921510e+02 5.623413251903490971e-03
9.773421268774110331e+02 1.000000000000000021e-02
1.018046267378061316e+03 1.778279410038922925e-02
1.062069141540878718e+03 3.162277660168379134e-02
1.112903937520697809e+03 5.623413251903491145e-02
1.175824763080135426e+03 1.000000000000000056e-01
1.257682761636187251e+03 1.778279410038922925e-01
1.370028093285643308e+03 3.162277660168379412e-01
1.537873306623533153e+03 5.623413251903490728e-01
1.770535672259630701e+03 1.000000000000000000e+00
2.040825533138117407e+03 1.778279410038922759e+00
2.323396975887778808e+03 3.162277660168379523e+00
2.605784344511939707e+03 5.623413251903491172e+00
2.881557548879252408e+03 1.000000000000000000e+01
3.153577098598886550e+03 1.778279410038922848e+01
3.430307871651432833e+03 3.162277660168379256e+01
3.718305300702963905e+03 5.623413251903490817e+01
4.025175851814322414e+03 1.000000000000000000e+02
4.354957649745152594e+03 1.778279410038922776e+02
4.723301462754772729e+03 3.162277660168379612e+02
