# Temperature (K), Pressure (bars)
8.371020480921376929e+02 1.000000000000000048e-04
8.860616370239242769e+02 1.778279410038922698e-04
9.350212272061977501e+02 3.162277660168379394e-04
9.830044245740540418e+02 5.623413251903490971e-04
1.031366747744731356e+03 1.000000000000000021e-03
1.081071721429230138e+03 1.778279410038922752e-03
1.133156465012371655e+03 3.162277660168379394e-03
1.190159544334756447e+03 5.623413251903490971e-03
1.254464889196395006e+03 1.000000000000000021e-02
1.332696701561127156e+03 1.778279410038922925e-02
1.427573039349454575e+03 3.162277660168379134e-02
1.566129121060756916e+03 5.623413251903491145e-02
1.782196365512245393e+03 1.000000000000000056e-01
2.039169601427749512e+03 1.778279410038922925e-01
2.289890057633870583e+03 3.162277660168379412e-01
2.524987016267300532e+03 5.623413251903490728e-01
2.745149734147072195e+03 1.000000000000000000e+00
2.957244293671267314e+03 1.778279410038922759e+00
3.168491914963663476e+03 3.162277660168379523e+00
3.385427293217038368e+03 5.623413251903491172e+00
3.613887639128039154e+03 1.000000000000000000e+01
3.859411161076490316e+03 1.778279410038922848e+01
4.129924963933246545e+03 3.162277660168379256e+01
4.430034163760772572e+03 5.623413251903490817e+01
4.767006837171178631e+03 1.000000000000000000e+02
5.144233415826626697e+03 1.778279410038922776e+02
5.584521120860743395e+03 3.162277660168379612e+02
