# Temperature (K), Pressure (bars)
8.374572555666495646e+02 3.162277660168379394e-04
8.899038512209511964e+02 5.623413251903490971e-04
9.423504480133125298e+02 1.000000000000000021e-03
9.930553029253185287e+02 1.778279410038922752e-03
1.042774773773416428e+03 3.162277660168379394e-03
1.093165138265586393e+03 5.623413251903490971e-03
1.146247518987201829e+03 1.000000000000000021e-02
1.205442832536416518e+03 1.778279410038922925e-02
1.275032622216293930e+03 3.162277660168379134e-02
1.362401353904823964e+03 5.623413251903491145e-02
1.482106500928908872e+03 1.000000000000000056e-01
1.658558705687876454e+03 1.778279410038922925e-01
1.896683927702646770e+03 3.162277660168379412e-01
2.160765142704908612e+03 5.623413251903490728e-01
2.419175146038693129e+03 1.000000000000000000e+00
2.665244906653020735e+03 1.778279410038922759e+00
2.901226178853344209e+03 3.162277660168379523e+00
3.133549825209068786e+03 5.623413251903491172e+00
3.369394612107413195e+03 1.000000000000000000e+01
3.615650094111939325e+03 1.778279410038922848e+01
3.880862709638332490e+03 3.162277660168379256e+01
4.169867540817251211e+03 5.623413251903490817e+01
4.489397565097301595e+03 1.000000000000000000e+02
4.842600554350271523e+03 1.778279410038922776e+02
5.248648332243954428e+03 3.162277660168379612e+02
