# Temperature (K), Pressure (bars)
8.743806392903347842e+02 5.623413251903490700e-05
9.311606200233520667e+02 1.000000000000000048e-04
9.879406005346666007e+02 1.778279410038922698e-04
1.039774721734677996e+03 3.162277660168379394e-04
1.093083059335665894e+03 5.623413251903490971e-04
1.150944667844905553e+03 1.000000000000000021e-03
1.208320643917617190e+03 1.778279410038922752e-03
1.257540530068977205e+03 3.162277660168379394e-03
1.297864466186254958e+03 5.623413251903490971e-03
1.335433843146533718e+03 1.000000000000000021e-02
1.377240228638981307e+03 1.778279410038922925e-02
1.428228023893434511e+03 3.162277660168379134e-02
1.491140478898648780e+03 5.623413251903491145e-02
1.597875817643704750e+03 1.000000000000000056e-01
1.776395270359905908e+03 1.778279410038922925e-01
2.009240792807423531e+03 3.162277660168379412e-01
2.268344239740239573e+03 5.623413251903490728e-01
2.521684924105013579e+03 1.000000000000000000e+00
2.757233587920328318e+03 1.778279410038922759e+00
2.985628177746327765e+03 3.162277660168379523e+00
3.213466020362537620e+03 5.623413251903491172e+00
3.447195972505133341e+03 1.000000000000000000e+01
3.693242308966828205e+03 1.778279410038922848e+01
3.959745856953171369e+03 3.162277660168379256e+01
4.251862065125204026e+03 5.623413251903490817e+01
4.576440352255854123e+03 1.000000000000000000e+02
4.936916497365052237e+03 1.778279410038922776e+02
5.352637425024283402e+03 3.162277660168379612e+02
