# Temperature (K), Pressure (bars)
2.330639332191158246e+03 9.999999999999999547e-07
2.330708486575556435e+03 1.778279410038922901e-06
2.330777640959954624e+03 3.162277660168379191e-06
2.355662818268122919e+03 5.623413251903491208e-06
2.385109681763914523e+03 1.000000000000000082e-05
2.414782713257155592e+03 1.778279410038922901e-05
2.447556960402554068e+03 3.162277660168379530e-05
2.485737348012104121e+03 5.623413251903490700e-05
2.530293719385593249e+03 1.000000000000000048e-04
2.577779480697119197e+03 1.778279410038922698e-04
2.628528931576348441e+03 3.162277660168379394e-04
2.680947735221148378e+03 5.623413251903490971e-04
2.732689237484514706e+03 1.000000000000000021e-03
2.782253989650300809e+03 1.778279410038922752e-03
2.829060423631002777e+03 3.162277660168379394e-03
2.876674800763869825e+03 5.623413251903490971e-03
2.927386937878480694e+03 1.000000000000000021e-02
2.983768655315324850e+03 1.778279410038922925e-02
3.030561676886813984e+03 3.162277660168379134e-02
3.087009997387716794e+03 5.623413251903491145e-02
3.211340077521424973e+03 1.000000000000000056e-01
3.383985442435044206e+03 1.778279410038922925e-01
3.576441115152295879e+03 3.162277660168379412e-01
3.801067058739006370e+03 5.623413251903490728e-01
4.065045253882772158e+03 1.000000000000000000e+00
4.366096945259489985e+03 1.778279410038922759e+00
4.722776852291506657e+03 3.162277660168379523e+00
5.188914745315334585e+03 5.623413251903491172e+00
5.853090240787772927e+03 1.000000000000000000e+01
6.877019923000445488e+03 1.778279410038922848e+01
8.373718342362753901e+03 3.162277660168379256e+01
1.000000000000000000e+04 5.623413251903490817e+01
1.000000000000000000e+04 1.000000000000000000e+02
1.000000000000000000e+04 1.778279410038922776e+02
1.000000000000000000e+04 3.162277660168379612e+02
