# Temperature (K), Pressure (bars)
8.905585041241685076e+02 3.162277660168379394e-04
9.398502991895470586e+02 5.623413251903490971e-04
9.891420960374874767e+02 1.000000000000000021e-03
1.038427679333690094e+03 1.778279410038922752e-03
1.087013495158960723e+03 3.162277660168379394e-03
1.136363714670133049e+03 5.623413251903490971e-03
1.187656484239641031e+03 1.000000000000000021e-02
1.247503279146770183e+03 1.778279410038922925e-02
1.315849778438954445e+03 3.162277660168379134e-02
1.430901915279194554e+03 5.623413251903491145e-02
1.642637387230596005e+03 1.000000000000000056e-01
1.903709509530636524e+03 1.778279410038922925e-01
2.162526145245034513e+03 3.162277660168379412e-01
2.411964366866161981e+03 5.623413251903490728e-01
2.645642499783538369e+03 1.000000000000000000e+00
2.867836724664053236e+03 1.778279410038922759e+00
3.085636610576072599e+03 3.162277660168379523e+00
3.306188340872469325e+03 5.623413251903491172e+00
3.535946570163954220e+03 1.000000000000000000e+01
3.780859005460717981e+03 1.778279410038922848e+01
4.049088974311124730e+03 3.162277660168379256e+01
4.345066115158952016e+03 5.623413251903490817e+01
4.675868787006277671e+03 1.000000000000000000e+02
5.045049020863667465e+03 1.778279410038922776e+02
5.473516155051103851e+03 3.162277660168379612e+02
