# Temperature (K), Pressure (bars)
9.635701901802714247e+02 3.162277660168379530e-05
1.015362804783173146e+03 5.623413251903490700e-05
1.067155418761441979e+03 1.000000000000000048e-04
1.111492811958484481e+03 1.778279410038922698e-04
1.146537496185614145e+03 3.162277660168379394e-04
1.176439625826214751e+03 5.623413251903490971e-04
1.206670766272100536e+03 1.000000000000000021e-03
1.239714602613898933e+03 1.778279410038922752e-03
1.294070526351104490e+03 3.162277660168379394e-03
1.391166025002936749e+03 5.623413251903490971e-03
1.521538618646643272e+03 1.000000000000000021e-02
1.661134476844661094e+03 1.778279410038922925e-02
1.791737588563644977e+03 3.162277660168379134e-02
1.910826552895878876e+03 5.623413251903491145e-02
2.044625760122411066e+03 1.000000000000000056e-01
2.225084244198546912e+03 1.778279410038922925e-01
2.438534731366892174e+03 3.162277660168379412e-01
2.650607186169086617e+03 5.623413251903490728e-01
2.855634760215414190e+03 1.000000000000000000e+00
3.060205361631854885e+03 1.778279410038922759e+00
3.268350693747968307e+03 3.162277660168379523e+00
3.484839647206767040e+03 5.623413251903491172e+00
3.714962735092745788e+03 1.000000000000000000e+01
3.964189375066811863e+03 1.778279410038922848e+01
4.240503816057380391e+03 3.162277660168379256e+01
4.549255318483669726e+03 5.623413251903490817e+01
4.898425190809067317e+03 1.000000000000000000e+02
5.292078819671445672e+03 1.778279410038922776e+02
5.755138638501158312e+03 3.162277660168379612e+02
