# Temperature (K), Pressure (bars)
1.079467010957932189e+03 1.778279410038922901e-05
1.110830037655097840e+03 3.162277660168379530e-05
1.147628786754670045e+03 5.623413251903490700e-05
1.189401247366804682e+03 1.000000000000000048e-04
1.236294853715718546e+03 1.778279410038922698e-04
1.286984057727712980e+03 3.162277660168379394e-04
1.341145363012067719e+03 5.623413251903490971e-04
1.399613896028715772e+03 1.000000000000000021e-03
1.463845016994631806e+03 1.778279410038922752e-03
1.535153172911212550e+03 3.162277660168379394e-03
1.619731463603652173e+03 5.623413251903490971e-03
1.718306088989924319e+03 1.000000000000000021e-02
1.854025972781068958e+03 1.778279410038922925e-02
2.051321088347434852e+03 3.162277660168379134e-02
2.264551014996178765e+03 5.623413251903491145e-02
2.457887857252191679e+03 1.000000000000000056e-01
2.641041241860770697e+03 1.778279410038922925e-01
2.820810893753779055e+03 3.162277660168379412e-01
3.002060269971723756e+03 5.623413251903490728e-01
3.188234931945230983e+03 1.000000000000000000e+00
3.382294239584653042e+03 1.778279410038922759e+00
3.587733000201370942e+03 3.162277660168379523e+00
3.808895997959092711e+03 5.623413251903491172e+00
4.050760541723042479e+03 1.000000000000000000e+01
4.319040789121379021e+03 1.778279410038922848e+01
4.620712812845282315e+03 3.162277660168379256e+01
4.965138100920554280e+03 5.623413251903490817e+01
5.369126613804358385e+03 1.000000000000000000e+02
5.845316506730651781e+03 1.778279410038922776e+02
6.417199519756173686e+03 3.162277660168379612e+02
