# Temperature (K), Pressure (bars)
1.042939599387130329e+03 1.778279410038922901e-06
1.083210039775593032e+03 3.162277660168379191e-06
1.130646475981634467e+03 5.623413251903491208e-06
1.185990259728787350e+03 1.000000000000000082e-05
1.246096911407212247e+03 1.778279410038922901e-05
1.306193900780693184e+03 3.162277660168379530e-05
1.368916199324605259e+03 5.623413251903490700e-05
1.436610697495657405e+03 1.000000000000000048e-04
1.512032186371956868e+03 1.778279410038922698e-04
1.602789843741012191e+03 3.162277660168379394e-04
1.693323245226149993e+03 5.623413251903490971e-04
1.770184441766558166e+03 1.000000000000000021e-03
1.844965115662105518e+03 1.778279410038922752e-03
1.925351833691626325e+03 3.162277660168379394e-03
2.018026455533088210e+03 5.623413251903490971e-03
2.139367630222202024e+03 1.000000000000000021e-02
2.289040178184424803e+03 1.778279410038922925e-02
2.446420810369238097e+03 3.162277660168379134e-02
2.603250919154166695e+03 5.623413251903491145e-02
2.763335650593709033e+03 1.000000000000000056e-01
2.929258591945764692e+03 1.778279410038922925e-01
3.102776736061077827e+03 3.162277660168379412e-01
3.284761174228352957e+03 5.623413251903490728e-01
3.476560826647793874e+03 1.000000000000000000e+00
3.681371649986192551e+03 1.778279410038922759e+00
3.903946913041516837e+03 3.162277660168379523e+00
4.150021053567710624e+03 5.623413251903491172e+00
4.426536543075626469e+03 1.000000000000000000e+01
4.742712642845663140e+03 1.778279410038922848e+01
5.113729820875370024e+03 3.162277660168379256e+01
5.555367130747787996e+03 5.623413251903490817e+01
6.094129922514450300e+03 1.000000000000000000e+02
6.771853160085725904e+03 1.778279410038922776e+02
7.657832063671890864e+03 3.162277660168379612e+02
