# Temperature (K), Pressure (bars)
8.452524020677802810e+02 9.999999999999999547e-07
8.711570161904704719e+02 1.778279410038922901e-06
8.970616303163548082e+02 3.162277660168379191e-06
9.261460085567473470e+02 5.623413251903491208e-06
9.578899739140229030e+02 1.000000000000000082e-05
9.925757887494972920e+02 1.778279410038922901e-05
1.030800731291394641e+03 3.162277660168379530e-05
1.072622455064126825e+03 5.623413251903490700e-05
1.118307281545690330e+03 1.000000000000000048e-04
1.167568480176617868e+03 1.778279410038922698e-04
1.220595520898944869e+03 3.162277660168379394e-04
1.277262548758626053e+03 5.623413251903490971e-04
1.339307437842976924e+03 1.000000000000000021e-03
1.408618280637165753e+03 1.778279410038922752e-03
1.491430984190567187e+03 3.162277660168379394e-03
1.591181317432892229e+03 5.623413251903490971e-03
1.730944809996705771e+03 1.000000000000000021e-02
1.934952987125094978e+03 1.778279410038922925e-02
2.160069186205166261e+03 3.162277660168379134e-02
2.365546338465005647e+03 5.623413251903491145e-02
2.555504100529768948e+03 1.000000000000000056e-01
2.736966347872790720e+03 1.778279410038922925e-01
2.915577155331800441e+03 3.162277660168379412e-01
3.095338410320354342e+03 5.623413251903490728e-01
3.279865258112725769e+03 1.000000000000000000e+00
3.473304670811620781e+03 1.778279410038922759e+00
3.680200723190381268e+03 3.162277660168379523e+00
3.905272209487628970e+03 5.623413251903491172e+00
4.153685729459956747e+03 1.000000000000000000e+01
4.431596906822889650e+03 1.778279410038922848e+01
4.746826289867583000e+03 3.162277660168379256e+01
5.110163102217273263e+03 5.623413251903490817e+01
5.540590427804484534e+03 1.000000000000000000e+02
6.054031545622884551e+03 1.778279410038922776e+02
6.678786747917501998e+03 3.162277660168379612e+02
