# Temperature (K), Pressure (bars)
1.045156975676085949e+03 9.999999999999999547e-07
1.060717388852420299e+03 1.778279410038922901e-06
1.076277802050639821e+03 3.162277660168379191e-06
1.098322889949314231e+03 5.623413251903491208e-06
1.126817173561581512e+03 1.000000000000000082e-05
1.160535355418063091e+03 1.778279410038922901e-05
1.200278123419592930e+03 3.162277660168379530e-05
1.245808543527769416e+03 5.623413251903490700e-05
1.296340301703281511e+03 1.000000000000000048e-04
1.352219185638884937e+03 1.778279410038922698e-04
1.415432804130123714e+03 3.162277660168379394e-04
1.484077958874543810e+03 5.623413251903490971e-04
1.561758950220026691e+03 1.000000000000000021e-03
1.655092902584742887e+03 1.778279410038922752e-03
1.758305437447737404e+03 3.162277660168379394e-03
1.861504197820117497e+03 5.623413251903490971e-03
1.986966693773160387e+03 1.000000000000000021e-02
2.159284499791536291e+03 1.778279410038922925e-02
2.343308027947490700e+03 3.162277660168379134e-02
2.514139544867029144e+03 5.623413251903491145e-02
2.682167362712669728e+03 1.000000000000000056e-01
2.851447994327974357e+03 1.778279410038922925e-01
3.024942499465275432e+03 3.162277660168379412e-01
3.204561431377249392e+03 5.623413251903490728e-01
3.392133648668485421e+03 1.000000000000000000e+00
3.591025768024032004e+03 1.778279410038922759e+00
3.805787236497774302e+03 3.162277660168379523e+00
4.041608956831645628e+03 5.623413251903491172e+00
4.304590686075701342e+03 1.000000000000000000e+01
4.602394644937872727e+03 1.778279410038922848e+01
4.945317096278398822e+03 3.162277660168379256e+01
5.350181059965292661e+03 5.623413251903490817e+01
5.834700345434166593e+03 1.000000000000000000e+02
6.429121399739362460e+03 1.778279410038922776e+02
7.181248394941954757e+03 3.162277660168379612e+02
