# Temperature (K), Pressure (bars)
7.968470019952920893e+02 3.162277660168379394e-04
8.458671672247464812e+02 5.623413251903490971e-04
8.948873336340193418e+02 1.000000000000000021e-03
9.423277907276736869e+02 1.778279410038922752e-03
9.892647110694236972e+02 3.162277660168379394e-03
1.037612134388965842e+03 5.623413251903490971e-03
1.090137608110560222e+03 1.000000000000000021e-02
1.150273656505700956e+03 1.778279410038922925e-02
1.223994751984098457e+03 3.162277660168379134e-02
1.315892620435443177e+03 5.623413251903491145e-02
1.443605516866057314e+03 1.000000000000000056e-01
1.631157671188810127e+03 1.778279410038922925e-01
1.873052610241180219e+03 3.162277660168379412e-01
2.142483262936686060e+03 5.623413251903490728e-01
2.408097399548758858e+03 1.000000000000000000e+00
2.656373298365277151e+03 1.778279410038922759e+00
2.893332977844690959e+03 3.162277660168379523e+00
3.125922237675560609e+03 5.623413251903491172e+00
3.361733792706488657e+03 1.000000000000000000e+01
3.607805737976265391e+03 1.778279410038922848e+01
3.872764614016225551e+03 3.162277660168379256e+01
4.161259271285372961e+03 5.623413251903490817e+01
4.479947074478669492e+03 1.000000000000000000e+02
4.831976837470909231e+03 1.778279410038922776e+02
5.236263653828425049e+03 3.162277660168379612e+02
