# Temperature (K), Pressure (bars)
8.723384490711862327e+02 3.162277660168379394e-04
9.130200201609357009e+02 5.623413251903490971e-04
9.537015924172219457e+02 1.000000000000000021e-03
9.957427462876819391e+02 1.778279410038922752e-03
1.039024385678193539e+03 3.162277660168379394e-03
1.082822149630901322e+03 5.623413251903490971e-03
1.127704152392132073e+03 1.000000000000000021e-02
1.175891464637779791e+03 1.778279410038922925e-02
1.229614548989476134e+03 3.162277660168379134e-02
1.293760312387619251e+03 5.623413251903491145e-02
1.412817569219006373e+03 1.000000000000000056e-01
1.622438773652778082e+03 1.778279410038922925e-01
1.880364416794505132e+03 3.162277660168379412e-01
2.145430330069465981e+03 5.623413251903490728e-01
2.406545807091750703e+03 1.000000000000000000e+00
2.655018540547785960e+03 1.778279410038922759e+00
2.892361703472503450e+03 3.162277660168379523e+00
3.125141071987456144e+03 5.623413251903491172e+00
3.361043416958674243e+03 1.000000000000000000e+01
3.607228740429774462e+03 1.778279410038922848e+01
3.872331377959867950e+03 3.162277660168379256e+01
4.161054373810062316e+03 5.623413251903490817e+01
4.480098199416467651e+03 1.000000000000000000e+02
4.832500205004116651e+03 1.778279410038922776e+02
5.237511555160383978e+03 3.162277660168379612e+02
