# Temperature (K), Pressure (bars)
9.664545144687658649e+02 3.162277660168379394e-04
1.021129120151799725e+03 5.623413251903490971e-04
1.075803727294595546e+03 1.000000000000000021e-03
1.129619753503633774e+03 1.778279410038922752e-03
1.183119096346194056e+03 3.162277660168379394e-03
1.237862316890051034e+03 5.623413251903490971e-03
1.294797890596904381e+03 1.000000000000000021e-02
1.357373543741654430e+03 1.778279410038922925e-02
1.429108303744412297e+03 3.162277660168379134e-02
1.521343992416854917e+03 5.623413251903491145e-02
1.650560111802197298e+03 1.000000000000000056e-01
1.839052503953346786e+03 1.778279410038922925e-01
2.088585507988497284e+03 3.162277660168379412e-01
2.347733517806801046e+03 5.623413251903490728e-01
2.586236094951926589e+03 1.000000000000000000e+00
2.813371719035430488e+03 1.778279410038922759e+00
3.035760487455258954e+03 3.162277660168379523e+00
3.259792976268907296e+03 5.623413251903491172e+00
3.491505960321730072e+03 1.000000000000000000e+01
3.736915076592293190e+03 1.778279410038922848e+01
4.004043588724615347e+03 3.162277660168379256e+01
4.297808155381115284e+03 5.623413251903490817e+01
4.625210136741185124e+03 1.000000000000000000e+02
4.989776686072345910e+03 1.778279410038922776e+02
5.411779023545389464e+03 3.162277660168379612e+02
