# Temperature (K), Pressure (bars)
8.964456658077674547e+02 3.162277660168379394e-04
9.479215946481070887e+02 5.623413251903490971e-04
9.993975250015206484e+02 1.000000000000000021e-03
1.049759419223480336e+03 1.778279410038922752e-03
1.099979138958116437e+03 3.162277660168379394e-03
1.151091119645349863e+03 5.623413251903490971e-03
1.204109618127456542e+03 1.000000000000000021e-02
1.261438969415286465e+03 1.778279410038922925e-02
1.326872060372488022e+03 3.162277660168379134e-02
1.408126762214588780e+03 5.623413251903491145e-02
1.517877218117891744e+03 1.000000000000000056e-01
1.686979148890816532e+03 1.778279410038922925e-01
1.927589518097082419e+03 3.162277660168379412e-01
2.193358350381046876e+03 5.623413251903490728e-01
2.448282012038045195e+03 1.000000000000000000e+00
2.691026663959244161e+03 1.778279410038922759e+00
2.924647504372605908e+03 3.162277660168379523e+00
3.155637458551612326e+03 5.623413251903491172e+00
3.390877714425490012e+03 1.000000000000000000e+01
3.637022007673841017e+03 1.778279410038922848e+01
3.902377640745787176e+03 3.162277660168379256e+01
4.192008328705665917e+03 5.623413251903490817e+01
4.512645682359043349e+03 1.000000000000000000e+02
4.867347119970928361e+03 1.778279410038922776e+02
5.275753551848830284e+03 3.162277660168379612e+02
