# Temperature (K), Pressure (bars)
2.249235715641395473e+03 9.999999999999999547e-07
2.269335228919229849e+03 1.778279410038922901e-06
2.289434742197065134e+03 3.162277660168379191e-06
2.315151679305326979e+03 5.623413251903491208e-06
2.344621641720658317e+03 1.000000000000000082e-05
2.375841765502886119e+03 1.778279410038922901e-05
2.409007616086337293e+03 3.162277660168379530e-05
2.444379826249963116e+03 5.623413251903490700e-05
2.481646496641739759e+03 1.000000000000000048e-04
2.519359799941863912e+03 1.778279410038922698e-04
2.555387271180149583e+03 3.162277660168379394e-04
2.587351493034636860e+03 5.623413251903490971e-04
2.613981380451154109e+03 1.000000000000000021e-03
2.637186465912338917e+03 1.778279410038922752e-03
2.661718987305868268e+03 3.162277660168379394e-03
2.693046525314564406e+03 5.623413251903490971e-03
2.733774964981657831e+03 1.000000000000000021e-02
2.786433294732079958e+03 1.778279410038922925e-02
2.847463271859881843e+03 3.162277660168379134e-02
2.931723564791740955e+03 5.623413251903491145e-02
3.062763142380261343e+03 1.000000000000000056e-01
3.220769993344883915e+03 1.778279410038922925e-01
3.391574802094348797e+03 3.162277660168379412e-01
3.585307713366544249e+03 5.623413251903490728e-01
3.805097364162624672e+03 1.000000000000000000e+00
4.053907732228722125e+03 1.778279410038922759e+00
4.337909588234984767e+03 3.162277660168379523e+00
4.663994023727101194e+03 5.623413251903491172e+00
5.052815119756077365e+03 1.000000000000000000e+01
5.544963406606983881e+03 1.778279410038922848e+01
6.206010755865285319e+03 3.162277660168379256e+01
7.157269960418854680e+03 5.623413251903490817e+01
8.548472100819317347e+03 1.000000000000000000e+02
1.000000000000000000e+04 1.778279410038922776e+02
1.000000000000000000e+04 3.162277660168379612e+02
