# Temperature (K), Pressure (bars)
2.219886478608486414e+03 9.999999999999999547e-07
2.234744481804504630e+03 1.778279410038922901e-06
2.249602485000523757e+03 3.162277660168379191e-06
2.278160112351706175e+03 5.623413251903491208e-06
2.314004572570990149e+03 1.000000000000000082e-05
2.352741336315808439e+03 1.778279410038922901e-05
2.395448574082725372e+03 3.162277660168379530e-05
2.441783963098459026e+03 5.623413251903490700e-05
2.490831063422800980e+03 1.000000000000000048e-04
2.540045013833571375e+03 1.778279410038922698e-04
2.587441755290786205e+03 3.162277660168379394e-04
2.631743125829182645e+03 5.623413251903490971e-04
2.671614268411246485e+03 1.000000000000000021e-03
2.706856399725590563e+03 1.778279410038922752e-03
2.739874221941204723e+03 3.162277660168379394e-03
2.774716552082340968e+03 5.623413251903490971e-03
2.817810280656256964e+03 1.000000000000000021e-02
2.871963812762368434e+03 1.778279410038922925e-02
2.945462395008235944e+03 3.162277660168379134e-02
3.055215826709283647e+03 5.623413251903491145e-02
3.197946032487403045e+03 1.000000000000000056e-01
3.363552408423217912e+03 1.778279410038922925e-01
3.555345888053919680e+03 3.162277660168379412e-01
3.776820697507178465e+03 5.623413251903490728e-01
4.033018743020072179e+03 1.000000000000000000e+00
4.337064515752048464e+03 1.778279410038922759e+00
4.681537060034917886e+03 3.162277660168379523e+00
5.122844416315809212e+03 5.623413251903491172e+00
5.727543203913694015e+03 1.000000000000000000e+01
6.617313419738453376e+03 1.778279410038922848e+01
7.962402850123105054e+03 3.162277660168379256e+01
9.741044818313925134e+03 5.623413251903490817e+01
1.000000000000000000e+04 1.000000000000000000e+02
1.000000000000000000e+04 1.778279410038922776e+02
1.000000000000000000e+04 3.162277660168379612e+02
