# Temperature (K), Pressure (bars)
1.124923687256025232e+03 9.999999999999999547e-07
1.241598534228081462e+03 1.778279410038922901e-06
1.358275895873226546e+03 3.162277660168379191e-06
1.522358120637975389e+03 5.623413251903491208e-06
1.668217752571186338e+03 1.000000000000000082e-05
1.763009637611553671e+03 1.778279410038922901e-05
1.832311484572953759e+03 3.162277660168379530e-05
1.886913833177952938e+03 5.623413251903490700e-05
1.931443128846783566e+03 1.000000000000000048e-04
1.971652865080434140e+03 1.778279410038922698e-04
2.011023592729086431e+03 3.162277660168379394e-04
2.052090147733089907e+03 5.623413251903490971e-04
2.096678079534613971e+03 1.000000000000000021e-03
2.146837662939892653e+03 1.778279410038922752e-03
2.205164067314564818e+03 3.162277660168379394e-03
2.275044912682218637e+03 5.623413251903490971e-03
2.366069654210579301e+03 1.000000000000000021e-02
2.483156144812932325e+03 1.778279410038922925e-02
2.614590111981567134e+03 3.162277660168379134e-02
2.753708774736467603e+03 5.623413251903491145e-02
2.903715199046077942e+03 1.000000000000000056e-01
3.066614660568518048e+03 1.778279410038922925e-01
3.243378422302011131e+03 3.162277660168379412e-01
3.433750612310713677e+03 5.623413251903490728e-01
3.638237896521998664e+03 1.000000000000000000e+00
3.859973430626248046e+03 1.778279410038922759e+00
4.104693379880050088e+03 3.162277660168379523e+00
4.380263662237181961e+03 5.623413251903491172e+00
4.697226704269036418e+03 1.000000000000000000e+01
5.070167821342949537e+03 1.778279410038922848e+01
5.522133367096842449e+03 3.162277660168379256e+01
6.086796147422914146e+03 5.623413251903490817e+01
6.819105297368978427e+03 1.000000000000000000e+02
7.814286932604469257e+03 1.778279410038922776e+02
9.224045344182793997e+03 3.162277660168379612e+02
