# Temperature (K), Pressure (bars)
1.594581043954749475e+03 9.999999999999999547e-07
1.627766113870558002e+03 1.778279410038922901e-06
1.660951183788883100e+03 3.162277660168379191e-06
1.699959790187088402e+03 5.623413251903491208e-06
1.743873606981751436e+03 1.000000000000000082e-05
1.791665113239774200e+03 1.778279410038922901e-05
1.840604907389541950e+03 3.162277660168379530e-05
1.887321080640794662e+03 5.623413251903490700e-05
1.932298424009356040e+03 1.000000000000000048e-04
1.977472936991072174e+03 1.778279410038922698e-04
2.025156678517008686e+03 3.162277660168379394e-04
2.076042897258500489e+03 5.623413251903490971e-04
2.131334678679204444e+03 1.000000000000000021e-03
2.192056128507660560e+03 1.778279410038922752e-03
2.264120312705803826e+03 3.162277660168379394e-03
2.358548138797834326e+03 5.623413251903490971e-03
2.472254136633204325e+03 1.000000000000000021e-02
2.595894566275875150e+03 1.778279410038922925e-02
2.728016993775646824e+03 3.162277660168379134e-02
2.869891440865589175e+03 5.623413251903491145e-02
3.023395036879147483e+03 1.000000000000000056e-01
3.190805359213071824e+03 1.778279410038922925e-01
3.374077704313114737e+03 3.162277660168379412e-01
3.574464155971363652e+03 5.623413251903490728e-01
3.793893296656486200e+03 1.000000000000000000e+00
4.037014346097351336e+03 1.778279410038922759e+00
4.312150778747653931e+03 3.162277660168379523e+00
4.631827909703744808e+03 5.623413251903491172e+00
5.010315540211009647e+03 1.000000000000000000e+01
5.483654917104563538e+03 1.778279410038922848e+01
6.104233842128762262e+03 3.162277660168379256e+01
6.966867599923434682e+03 5.623413251903490817e+01
8.228960610734577131e+03 1.000000000000000000e+02
9.974564686629417338e+03 1.778279410038922776e+02
1.209789191478955581e+04 3.162277660168379612e+02
