# Temperature (K), Pressure (bars)
2.397456999722097407e+03 9.999999999999999547e-07
2.400545918404664917e+03 1.778279410038922901e-06
2.403634837087233336e+03 3.162277660168379191e-06
2.423913717288421594e+03 5.623413251903491208e-06
2.452633821963435821e+03 1.000000000000000082e-05
2.485747744813593272e+03 1.778279410038922901e-05
2.522115603187060515e+03 3.162277660168379530e-05
2.558931514684415106e+03 5.623413251903490700e-05
2.598506958551301523e+03 1.000000000000000048e-04
2.641797860741658951e+03 1.778279410038922698e-04
2.687692787396780204e+03 3.162277660168379394e-04
2.735428073065934768e+03 5.623413251903490971e-04
2.783466780683851539e+03 1.000000000000000021e-03
2.828656990224283163e+03 1.778279410038922752e-03
2.867541229308086258e+03 3.162277660168379394e-03
2.901929692374429578e+03 5.623413251903490971e-03
2.939445947149593394e+03 1.000000000000000021e-02
2.989539316929451161e+03 1.778279410038922925e-02
3.049234812800598320e+03 3.162277660168379134e-02
3.119957081367172123e+03 5.623413251903491145e-02
3.229872663882328197e+03 1.000000000000000056e-01
3.386456813213496844e+03 1.778279410038922925e-01
3.574408276098367423e+03 3.162277660168379412e-01
3.793381773158671422e+03 5.623413251903490728e-01
4.050246518089122219e+03 1.000000000000000000e+00
4.357328948015483547e+03 1.778279410038922759e+00
4.709457607782458581e+03 3.162277660168379523e+00
5.166955230350040438e+03 5.623413251903491172e+00
5.812737126445751528e+03 1.000000000000000000e+01
6.801506246246412957e+03 1.778279410038922848e+01
8.258024682656347068e+03 3.162277660168379256e+01
1.000000000000000000e+04 5.623413251903490817e+01
1.000000000000000000e+04 1.000000000000000000e+02
1.000000000000000000e+04 1.778279410038922776e+02
1.000000000000000000e+04 3.162277660168379612e+02
