# Temperature (K), Pressure (bars)
2.297724897399830752e+03 9.999999999999999547e-07
2.315775144652646304e+03 1.778279410038922901e-06
2.333825391905461402e+03 3.162277660168379191e-06
2.361002286650548740e+03 5.623413251903491208e-06
2.392367359928951373e+03 1.000000000000000082e-05
2.426177583423588658e+03 1.778279410038922901e-05
2.464064171612602877e+03 3.162277660168379530e-05
2.504727355509331119e+03 5.623413251903490700e-05
2.547915354097076488e+03 1.000000000000000048e-04
2.593850481640913131e+03 1.778279410038922698e-04
2.641934064246106573e+03 3.162277660168379394e-04
2.690357173673577563e+03 5.623413251903490971e-04
2.736193373642122424e+03 1.000000000000000021e-03
2.776796635398220587e+03 1.778279410038922752e-03
2.811280873033676926e+03 3.162277660168379394e-03
2.844293294760158005e+03 5.623413251903490971e-03
2.882485491738835208e+03 1.000000000000000021e-02
2.934014821060718987e+03 1.778279410038922925e-02
2.992741950208911931e+03 3.162277660168379134e-02
3.067247573395320160e+03 5.623413251903491145e-02
3.191484331088493491e+03 1.000000000000000056e-01
3.355164906650590638e+03 1.778279410038922925e-01
3.540785208342184887e+03 3.162277660168379412e-01
3.757579069616199831e+03 5.623413251903490728e-01
4.012033640251780525e+03 1.000000000000000000e+00
4.314697117693141990e+03 1.778279410038922759e+00
4.652165260027639306e+03 3.162277660168379523e+00
5.082513540656175792e+03 5.623413251903491172e+00
5.673333321494819756e+03 1.000000000000000000e+01
6.561087170687798789e+03 1.778279410038922848e+01
7.906221774177090992e+03 3.162277660168379256e+01
9.677671380480178414e+03 5.623413251903490817e+01
1.000000000000000000e+04 1.000000000000000000e+02
1.000000000000000000e+04 1.778279410038922776e+02
1.000000000000000000e+04 3.162277660168379612e+02
