# Temperature (K), Pressure (bars)
1.047643187102360571e+03 9.999999999999999547e-07
1.092773102622427132e+03 1.778279410038922901e-06
1.137903018142493465e+03 3.162277660168379191e-06
1.182697890187800112e+03 5.623413251903491208e-06
1.229526089536403560e+03 1.000000000000000082e-05
1.279371546604995729e+03 1.778279410038922901e-05
1.333031543688012789e+03 3.162277660168379530e-05
1.392189962917838102e+03 5.623413251903490700e-05
1.458918140405591203e+03 1.000000000000000048e-04
1.535414908234765790e+03 1.778279410038922698e-04
1.623810305906737085e+03 3.162277660168379394e-04
1.728459688963523604e+03 5.623413251903490971e-04
1.852705034308469067e+03 1.000000000000000021e-03
1.997658482393712575e+03 1.778279410038922752e-03
2.159055610682910356e+03 3.162277660168379394e-03
2.324498765637470569e+03 5.623413251903490971e-03
2.487794442223840178e+03 1.000000000000000021e-02
2.651577581583145275e+03 1.778279410038922925e-02
2.818778455318244596e+03 3.162277660168379134e-02
2.992028130604361650e+03 5.623413251903491145e-02
3.173448330332037131e+03 1.000000000000000056e-01
3.364805868793465834e+03 1.778279410038922925e-01
3.569156708665867427e+03 3.162277660168379412e-01
3.792468727184186719e+03 5.623413251903490728e-01
4.044021600520159154e+03 1.000000000000000000e+00
4.337392468212734457e+03 1.778279410038922759e+00
4.682275261119136303e+03 3.162277660168379523e+00
5.125748626517951379e+03 5.623413251903491172e+00
5.737247249374152489e+03 1.000000000000000000e+01
6.626699756291819540e+03 1.778279410038922848e+01
7.954560979030542512e+03 3.162277660168379256e+01
9.731073287152581543e+03 5.623413251903490817e+01
1.000000000000000000e+04 1.000000000000000000e+02
1.000000000000000000e+04 1.778279410038922776e+02
1.000000000000000000e+04 3.162277660168379612e+02
