# Temperature (K), Pressure (bars)
2.195251392831645262e+03 9.999999999999999547e-07
2.222325766799793200e+03 1.778279410038922901e-06
2.249400140767940684e+03 3.162277660168379191e-06
2.286020839878203333e+03 5.623413251903491208e-06
2.328425367402514439e+03 1.000000000000000082e-05
2.373691494416389560e+03 1.778279410038922901e-05
2.421126586192806826e+03 3.162277660168379530e-05
2.468596613051002350e+03 5.623413251903490700e-05
2.513914352862324904e+03 1.000000000000000048e-04
2.555467247650275112e+03 1.778279410038922698e-04
2.593282515315002456e+03 3.162277660168379394e-04
2.628563808136763328e+03 5.623413251903490971e-04
2.663520189241491153e+03 1.000000000000000021e-03
2.701429227686702689e+03 1.778279410038922752e-03
2.745559070189076465e+03 3.162277660168379394e-03
2.799429902728734760e+03 5.623413251903490971e-03
2.865112958996581710e+03 1.000000000000000021e-02
2.947442664383384454e+03 1.778279410038922925e-02
3.058015610306001236e+03 3.162277660168379134e-02
3.200716241542230819e+03 5.623413251903491145e-02
3.373687487594033428e+03 1.000000000000000056e-01
3.563555317997576822e+03 1.778279410038922925e-01
3.788085516909856324e+03 3.162277660168379412e-01
4.054964621590668230e+03 5.623413251903490728e-01
4.371452903077202791e+03 1.000000000000000000e+00
4.791203070360968923e+03 1.778279410038922759e+00
5.398637389630967846e+03 3.162277660168379523e+00
6.313022369292382791e+03 5.623413251903491172e+00
7.681904607407636831e+03 1.000000000000000000e+01
9.415687622219365949e+03 1.778279410038922848e+01
1.000000000000000000e+04 3.162277660168379256e+01
1.000000000000000000e+04 5.623413251903490817e+01
1.000000000000000000e+04 1.000000000000000000e+02
1.000000000000000000e+04 1.778279410038922776e+02
1.000000000000000000e+04 3.162277660168379612e+02
