# Temperature (K), Pressure (bars)
1.918943832132401212e+03 1.000000000000000082e-05
1.924265705790917764e+03 1.778279410038922901e-05
1.929587583515442930e+03 3.162277660168379530e-05
1.943368140750423663e+03 5.623413251903490700e-05
1.965513160561969471e+03 1.000000000000000048e-04
1.996796968045342737e+03 1.778279410038922698e-04
2.039106388901596574e+03 3.162277660168379394e-04
2.090485767882350046e+03 5.623413251903490971e-04
2.148562132181170909e+03 1.000000000000000021e-03
2.210216433045730355e+03 1.778279410038922752e-03
2.272576355253279417e+03 3.162277660168379394e-03
2.334326553759220587e+03 5.623413251903490971e-03
2.393243336525434643e+03 1.000000000000000021e-02
2.449019433982435658e+03 1.778279410038922925e-02
2.505334284596410725e+03 3.162277660168379134e-02
2.571192010739727266e+03 5.623413251903491145e-02
2.671184226990519619e+03 1.000000000000000056e-01
2.814144436375805981e+03 1.778279410038922925e-01
2.973121890626825461e+03 3.162277660168379412e-01
3.137584620470509890e+03 5.623413251903490728e-01
3.316515605015307301e+03 1.000000000000000000e+00
3.512560411783064865e+03 1.778279410038922759e+00
3.726916075278268181e+03 3.162277660168379523e+00
3.961442533445918343e+03 5.623413251903491172e+00
4.220278165559143417e+03 1.000000000000000000e+01
4.510052480066819044e+03 1.778279410038922848e+01
4.839941878253784125e+03 3.162277660168379256e+01
5.224849513181251496e+03 5.623413251903490817e+01
5.680342397112074650e+03 1.000000000000000000e+02
6.231175197258018670e+03 1.778279410038922776e+02
6.915113945174396576e+03 3.162277660168379612e+02
