# Temperature (K), Pressure (bars)
1.365780131760905533e+03 5.623413251903491208e-06
1.398785747451242969e+03 1.000000000000000082e-05
1.432012731107601439e+03 1.778279410038922901e-05
1.478003524261951043e+03 3.162277660168379530e-05
1.553953887926259085e+03 5.623413251903490700e-05
1.633444752347738131e+03 1.000000000000000048e-04
1.693953512902892044e+03 1.778279410038922698e-04
1.744655136783508851e+03 3.162277660168379394e-04
1.792534695692356308e+03 5.623413251903490971e-04
1.841696200790050852e+03 1.000000000000000021e-03
1.893817692841648523e+03 1.778279410038922752e-03
1.947433575940007131e+03 3.162277660168379394e-03
2.004180726001309949e+03 5.623413251903490971e-03
2.065273097508150386e+03 1.000000000000000021e-02
2.135431346282871800e+03 1.778279410038922925e-02
2.215157548326611959e+03 3.162277660168379134e-02
2.322621445942310856e+03 5.623413251903491145e-02
2.478964465771869527e+03 1.000000000000000056e-01
2.651884076835732685e+03 1.778279410038922925e-01
2.819770644578643896e+03 3.162277660168379412e-01
2.993548530673320784e+03 5.623413251903490728e-01
3.176578477381710854e+03 1.000000000000000000e+00
3.370874288170385626e+03 1.778279410038922759e+00
3.578229055488799986e+03 3.162277660168379523e+00
3.801544198794399563e+03 5.623413251903491172e+00
4.045311926115511596e+03 1.000000000000000000e+01
4.315288537109397112e+03 1.778279410038922848e+01
4.618597808194361278e+03 3.162277660168379256e+01
4.964713994562171138e+03 5.623413251903490817e+01
5.370362944227742446e+03 1.000000000000000000e+02
5.848484282478611021e+03 1.778279410038922776e+02
6.422734575799330742e+03 3.162277660168379612e+02
