# Temperature (K), Pressure (bars)
9.487671858714995778e+02 1.000000000000000021e-03
9.907426807929269899e+02 1.778279410038922752e-03
1.032718175941445452e+03 3.162277660168379394e-03
1.073787169041270772e+03 5.623413251903490971e-03
1.115895254046450418e+03 1.000000000000000021e-02
1.159629205652739302e+03 1.778279410038922925e-02
1.205625875000869883e+03 3.162277660168379134e-02
1.253847388242441411e+03 5.623413251903491145e-02
1.306032938390732397e+03 1.000000000000000056e-01
1.373144866438874260e+03 1.778279410038922925e-01
1.472060612315084654e+03 3.162277660168379412e-01
1.612467304704513026e+03 5.623413251903490728e-01
1.786751905989704255e+03 1.000000000000000000e+00
2.008658714717105795e+03 1.778279410038922759e+00
2.289484272139342920e+03 3.162277660168379523e+00
2.582898362601446479e+03 5.623413251903491172e+00
2.861448249766146091e+03 1.000000000000000000e+01
3.135590925541881006e+03 1.778279410038922848e+01
3.413506830228024228e+03 3.162277660168379256e+01
3.702069735476155984e+03 5.623413251903490817e+01
4.009088225065471306e+03 1.000000000000000000e+02
4.338970233473316512e+03 1.778279410038922776e+02
4.706672508093254692e+03 3.162277660168379612e+02
