# Temperature (K), Pressure (bars)
9.127404161495182962e+02 3.162277660168379394e-04
9.671472546045995387e+02 5.623413251903490971e-04
1.021554094516291116e+03 1.000000000000000021e-03
1.074120257767191561e+03 1.778279410038922752e-03
1.126397573572844067e+03 3.162277660168379394e-03
1.179806723543205180e+03 5.623413251903490971e-03
1.235411973998212716e+03 1.000000000000000021e-02
1.296804664010991246e+03 1.778279410038922925e-02
1.374160116072344863e+03 3.162277660168379134e-02
1.478898977253188832e+03 5.623413251903491145e-02
1.614616875894151690e+03 1.000000000000000056e-01
1.777764648896094059e+03 1.778279410038922925e-01
1.985872881527601066e+03 3.162277660168379412e-01
2.243249527060448600e+03 5.623413251903490728e-01
2.501812227641732079e+03 1.000000000000000000e+00
2.739068213852471217e+03 1.778279410038922759e+00
2.968119442572161006e+03 3.162277660168379523e+00
3.196061677569248332e+03 5.623413251903491172e+00
3.429580728084666589e+03 1.000000000000000000e+01
3.675187806463520246e+03 1.778279410038922848e+01
3.941173866183680275e+03 3.162277660168379256e+01
4.232442519757461014e+03 5.623413251903490817e+01
4.555815032188195801e+03 1.000000000000000000e+02
4.914774452504615510e+03 1.778279410038922776e+02
5.328768873166342928e+03 3.162277660168379612e+02
