# Temperature (K), Pressure (bars)
2.180328304598791419e+03 9.999999999999999547e-07
2.198444086721266103e+03 1.778279410038922901e-06
2.216559868843740333e+03 3.162277660168379191e-06
2.238466976612658073e+03 5.623413251903491208e-06
2.261825345149114128e+03 1.000000000000000082e-05
2.284646876098280700e+03 1.778279410038922901e-05
2.307186019038296763e+03 3.162277660168379530e-05
2.329476823404023435e+03 5.623413251903490700e-05
2.351636950818451623e+03 1.000000000000000048e-04
2.373925976831295884e+03 1.778279410038922698e-04
2.396236085810537588e+03 3.162277660168379394e-04
2.418205652048373395e+03 5.623413251903490971e-04
2.440311390830412165e+03 1.000000000000000021e-03
2.463853155671250533e+03 1.778279410038922752e-03
2.491073400314851369e+03 3.162277660168379394e-03
2.522652193381957659e+03 5.623413251903490971e-03
2.562739917341295040e+03 1.000000000000000021e-02
2.609774032623922722e+03 1.778279410038922925e-02
2.677972031339673777e+03 3.162277660168379134e-02
2.792519018532115751e+03 5.623413251903491145e-02
2.932597411974899387e+03 1.000000000000000056e-01
3.079594860528304707e+03 1.778279410038922925e-01
3.241896136227501756e+03 3.162277660168379412e-01
3.422570863303857095e+03 5.623413251903490728e-01
3.623337515399712629e+03 1.000000000000000000e+00
3.845355949262048853e+03 1.778279410038922759e+00
4.091543221599084973e+03 3.162277660168379523e+00
4.368207214097562428e+03 5.623413251903491172e+00
4.685441675278669209e+03 1.000000000000000000e+01
5.055967383096451158e+03 1.778279410038922848e+01
5.505747181460668799e+03 3.162277660168379256e+01
6.071458175401821791e+03 5.623413251903490817e+01
6.817058485788355938e+03 1.000000000000000000e+02
7.849164943598507307e+03 1.778279410038922776e+02
9.303789725047199681e+03 3.162277660168379612e+02
