# Temperature (K), Pressure (bars)
1.306705504795550041e+03 1.778279410038922901e-05
1.339775418412130421e+03 3.162277660168379530e-05
1.372845334516459616e+03 5.623413251903490700e-05
1.417230413737927847e+03 1.000000000000000048e-04
1.493732681017357436e+03 1.778279410038922698e-04
1.570521842238701083e+03 3.162277660168379394e-04
1.623884336964114937e+03 5.623413251903490971e-04
1.669963926455798401e+03 1.000000000000000021e-03
1.716129867637529969e+03 1.778279410038922752e-03
1.761946617186334379e+03 3.162277660168379394e-03
1.812072985592794112e+03 5.623413251903490971e-03
1.865828108630020324e+03 1.000000000000000021e-02
1.920380736616123841e+03 1.778279410038922925e-02
1.979053052447417940e+03 3.162277660168379134e-02
2.044673028386988335e+03 5.623413251903491145e-02
2.125207255208260449e+03 1.000000000000000056e-01
2.220032748076522694e+03 1.778279410038922925e-01
2.354977486631697502e+03 3.162277660168379412e-01
2.559125326088655584e+03 5.623413251903490728e-01
2.780396556770426741e+03 1.000000000000000000e+00
2.987028700911047054e+03 1.778279410038922759e+00
3.197376047020328315e+03 3.162277660168379523e+00
3.416347802102627611e+03 5.623413251903491172e+00
3.647678296244822377e+03 1.000000000000000000e+01
3.896221865425222404e+03 1.778279410038922848e+01
4.169352173693637269e+03 3.162277660168379256e+01
4.473023216295533530e+03 5.623413251903490817e+01
4.814959253339290626e+03 1.000000000000000000e+02
5.199063336041910588e+03 1.778279410038922776e+02
5.648715100301005805e+03 3.162277660168379612e+02
