# Temperature (K), Pressure (bars)
1.840677283622769664e+03 9.999999999999999547e-07
1.879304007491451557e+03 1.778279410038922901e-06
1.917930731360133450e+03 3.162277660168379191e-06
1.957438883112237590e+03 5.623413251903491208e-06
1.997856461898651560e+03 1.000000000000000082e-05
2.038589560067086040e+03 1.778279410038922901e-05
2.077575012078427335e+03 3.162277660168379530e-05
2.114750932475467835e+03 5.623413251903490700e-05
2.152592371161922529e+03 1.000000000000000048e-04
2.193187300740615228e+03 1.778279410038922698e-04
2.238298755638579223e+03 3.162277660168379394e-04
2.290106391196310142e+03 5.623413251903490971e-04
2.350538063341184625e+03 1.000000000000000021e-03
2.421789004925072732e+03 1.778279410038922752e-03
2.507418372144822570e+03 3.162277660168379394e-03
2.607924682829903304e+03 5.623413251903490971e-03
2.720134492224838596e+03 1.000000000000000021e-02
2.843402971141566923e+03 1.778279410038922925e-02
2.980445992021308030e+03 3.162277660168379134e-02
3.135412107398795342e+03 5.623413251903491145e-02
3.315608923883944954e+03 1.000000000000000056e-01
3.505262584144195898e+03 1.778279410038922925e-01
3.718568584396605274e+03 3.162277660168379412e-01
3.965846000628466754e+03 5.623413251903490728e-01
4.248224168880376965e+03 1.000000000000000000e+00
4.600850322663793122e+03 1.778279410038922759e+00
5.078155588637273468e+03 3.162277660168379523e+00
5.789986707446676519e+03 5.623413251903491172e+00
6.912257739457833850e+03 1.000000000000000000e+01
8.494855645042605829e+03 1.778279410038922848e+01
1.000000000000000000e+04 3.162277660168379256e+01
1.000000000000000000e+04 5.623413251903490817e+01
1.000000000000000000e+04 1.000000000000000000e+02
1.000000000000000000e+04 1.778279410038922776e+02
1.000000000000000000e+04 3.162277660168379612e+02
