# Temperature (K), Pressure (bars)
1.197154597692405105e+03 5.623413251903491208e-06
1.265574711052889597e+03 1.000000000000000082e-05
1.334233189691177586e+03 1.778279410038922901e-05
1.405698918412054354e+03 3.162277660168379530e-05
1.472006553871706728e+03 5.623413251903490700e-05
1.528726588195666409e+03 1.000000000000000048e-04
1.590706851391658802e+03 1.778279410038922698e-04
1.678782792209597119e+03 3.162277660168379394e-04
1.769078274276930642e+03 5.623413251903490971e-04
1.840165008523739289e+03 1.000000000000000021e-03
1.903352806981682079e+03 1.778279410038922752e-03
1.966321165623507341e+03 3.162277660168379394e-03
2.031309023624913152e+03 5.623413251903490971e-03
2.103686522958775640e+03 1.000000000000000021e-02
2.183392695913754324e+03 1.778279410038922925e-02
2.287889877203859214e+03 3.162277660168379134e-02
2.438307406681730299e+03 5.623413251903491145e-02
2.603355253784985052e+03 1.000000000000000056e-01
2.762854349602134334e+03 1.778279410038922925e-01
2.928158450970041031e+03 3.162277660168379412e-01
3.102266591249759131e+03 5.623413251903490728e-01
3.287186033968347147e+03 1.000000000000000000e+00
3.484507880842711529e+03 1.778279410038922759e+00
3.696327195000458232e+03 3.162277660168379523e+00
3.926273288875810067e+03 5.623413251903491172e+00
4.179517067233883608e+03 1.000000000000000000e+01
4.462573900384675653e+03 1.778279410038922848e+01
4.784033073377674555e+03 3.162277660168379256e+01
5.158628434587400079e+03 5.623413251903490817e+01
5.598935225350714063e+03 1.000000000000000000e+02
6.125794937274852600e+03 1.778279410038922776e+02
6.769037727219042608e+03 3.162277660168379612e+02
