# Temperature (K), Pressure (bars)
9.258237605626460436e+02 1.000000000000000021e-03
9.667339768164997622e+02 1.778279410038922752e-03
1.007644193208442857e+03 3.162277660168379394e-03
1.045507812421407834e+03 5.623413251903490971e-03
1.082929163846499705e+03 1.000000000000000021e-02
1.121782960497460181e+03 1.778279410038922925e-02
1.162090765643009263e+03 3.162277660168379134e-02
1.205257735182258102e+03 5.623413251903491145e-02
1.252584723027744531e+03 1.000000000000000056e-01
1.307745796765824025e+03 1.778279410038922925e-01
1.379407539241420636e+03 3.162277660168379412e-01
1.480277929894553381e+03 5.623413251903490728e-01
1.616565967078585572e+03 1.000000000000000000e+00
1.797996576067386968e+03 1.778279410038922759e+00
2.044801484598287516e+03 3.162277660168379523e+00
2.338572069126865244e+03 5.623413251903491172e+00
2.636502640927592893e+03 1.000000000000000000e+01
2.926927285704648966e+03 1.778279410038922848e+01
3.217848113214638488e+03 3.162277660168379256e+01
3.513798588980034765e+03 5.623413251903490817e+01
3.822711861309960568e+03 1.000000000000000000e+02
4.149613173876453402e+03 1.778279410038922776e+02
4.509186073091366779e+03 3.162277660168379612e+02
