# Temperature (K), Pressure (bars)
1.063234053932512097e+03 5.623413251903490700e-05
1.104882648304373106e+03 1.000000000000000048e-04
1.146531244913514911e+03 1.778279410038922698e-04
1.191062135834512674e+03 3.162277660168379394e-04
1.239711638747599636e+03 5.623413251903490971e-04
1.292160310634014422e+03 1.000000000000000021e-03
1.348770505279384679e+03 1.778279410038922752e-03
1.412716008979475646e+03 3.162277660168379394e-03
1.482104613884880564e+03 5.623413251903490971e-03
1.559327273198754028e+03 1.000000000000000021e-02
1.653698372132505483e+03 1.778279410038922925e-02
1.756924351180701706e+03 3.162277660168379134e-02
1.864934706787415962e+03 5.623413251903491145e-02
1.994438669360004496e+03 1.000000000000000056e-01
2.172166054311930566e+03 1.778279410038922925e-01
2.394638469910533331e+03 3.162277660168379412e-01
2.616156023667908357e+03 5.623413251903490728e-01
2.822113960522522575e+03 1.000000000000000000e+00
3.026847170714552703e+03 1.778279410038922759e+00
3.235841565907186123e+03 3.162277660168379523e+00
3.453183791789408588e+03 5.623413251903491172e+00
3.683477875730850428e+03 1.000000000000000000e+01
3.932053208916901895e+03 1.778279410038922848e+01
4.206601190703607244e+03 3.162277660168379256e+01
4.512671072323926637e+03 5.623413251903490817e+01
4.858126719626871818e+03 1.000000000000000000e+02
5.246460145745576483e+03 1.778279410038922776e+02
5.702861338991886441e+03 3.162277660168379612e+02
