# Temperature (K), Pressure (bars)
1.802438273217564756e+03 9.999999999999999547e-07
1.851506434418918161e+03 1.778279410038922901e-06
1.900574595620270884e+03 3.162277660168379191e-06
1.946712695397712423e+03 5.623413251903491208e-06
1.990143066806239858e+03 1.000000000000000082e-05
2.031687231842386154e+03 1.778279410038922901e-05
2.071534872645379437e+03 3.162277660168379530e-05
2.111375860834602008e+03 5.623413251903490700e-05
2.153699607538789223e+03 1.000000000000000048e-04
2.200153911970146510e+03 1.778279410038922698e-04
2.252480903294638210e+03 3.162277660168379394e-04
2.312995831434119737e+03 5.623413251903490971e-04
2.383569151733840954e+03 1.000000000000000021e-03
2.466235225824164900e+03 1.778279410038922752e-03
2.561810841645820346e+03 3.162277660168379394e-03
2.668348497082305130e+03 5.623413251903490971e-03
2.785305124218542005e+03 1.000000000000000021e-02
2.915434499567079911e+03 1.778279410038922925e-02
3.063365787293657831e+03 3.162277660168379134e-02
3.239137646969476464e+03 5.623413251903491145e-02
3.417440063748043031e+03 1.000000000000000056e-01
3.624580281429917250e+03 1.778279410038922925e-01
3.868726901176344654e+03 3.162277660168379412e-01
4.148318312197693558e+03 5.623413251903490728e-01
4.510919865008164379e+03 1.000000000000000000e+00
5.030986055283856331e+03 1.778279410038922759e+00
5.857153003421430185e+03 3.162277660168379523e+00
7.146514285277819909e+03 5.623413251903491172e+00
8.801744606812244456e+03 1.000000000000000000e+01
1.000000000000000000e+04 1.778279410038922848e+01
1.000000000000000000e+04 3.162277660168379256e+01
1.000000000000000000e+04 5.623413251903490817e+01
1.000000000000000000e+04 1.000000000000000000e+02
1.000000000000000000e+04 1.778279410038922776e+02
1.000000000000000000e+04 3.162277660168379612e+02
