# Temperature (K), Pressure (bars)
1.400129800267758583e+03 1.000000000000000082e-05
1.412242431041909185e+03 1.778279410038922901e-05
1.430729873945522741e+03 3.162277660168379530e-05
1.454778255099111448e+03 5.623413251903490700e-05
1.486565405526803715e+03 1.000000000000000048e-04
1.527187217775984664e+03 1.778279410038922698e-04
1.581789694962663589e+03 3.162277660168379394e-04
1.654379015130088646e+03 5.623413251903490971e-04
1.727883241902644386e+03 1.000000000000000021e-03
1.791628885278688585e+03 1.778279410038922752e-03
1.854233456393539655e+03 3.162277660168379394e-03
1.920280944835817536e+03 5.623413251903490971e-03
1.989042578920519190e+03 1.000000000000000021e-02
2.065399714980703720e+03 1.778279410038922925e-02
2.149644537013856279e+03 3.162277660168379134e-02
2.258105373386562405e+03 5.623413251903491145e-02
2.413987968860060846e+03 1.000000000000000056e-01
2.589940349189259905e+03 1.778279410038922925e-01
2.762171160210287326e+03 3.162277660168379412e-01
2.938028439814446756e+03 5.623413251903490728e-01
3.121292246885926033e+03 1.000000000000000000e+00
3.314726670241395823e+03 1.778279410038922759e+00
3.520553558741849884e+03 3.162277660168379523e+00
3.741489631507719423e+03 5.623413251903491172e+00
3.981620074092819777e+03 1.000000000000000000e+01
4.246363447691117472e+03 1.778279410038922848e+01
4.542424588322648560e+03 3.162277660168379256e+01
4.878611102444365315e+03 5.623413251903490817e+01
5.270645807758657611e+03 1.000000000000000000e+02
5.729876847622183959e+03 1.778279410038922776e+02
6.277391849573798027e+03 3.162277660168379612e+02
