# Temperature (K), Pressure (bars)
1.012496440640374090e+03 5.623413251903490700e-05
1.073129550861651751e+03 1.000000000000000048e-04
1.133762665127557057e+03 1.778279410038922698e-04
1.198133438747782293e+03 3.162277660168379394e-04
1.260791672210853221e+03 5.623413251903490971e-04
1.319379580242469956e+03 1.000000000000000021e-03
1.374751840397665319e+03 1.778279410038922752e-03
1.438897769506803797e+03 3.162277660168379394e-03
1.525235913944429512e+03 5.623413251903490971e-03
1.610506187516546333e+03 1.000000000000000021e-02
1.676287111324337275e+03 1.778279410038922925e-02
1.736816961551011218e+03 3.162277660168379134e-02
1.804830492954020428e+03 5.623413251903491145e-02
1.881828002715116554e+03 1.000000000000000056e-01
1.974454035683339953e+03 1.778279410038922925e-01
2.091129567885221149e+03 3.162277660168379412e-01
2.263098184520751602e+03 5.623413251903490728e-01
2.503720327869546963e+03 1.000000000000000000e+00
2.752218926923757408e+03 1.778279410038922759e+00
2.980884638017427278e+03 3.162277660168379523e+00
3.209134648320414726e+03 5.623413251903491172e+00
3.443620203842742285e+03 1.000000000000000000e+01
3.690204512009153859e+03 1.778279410038922848e+01
3.956655409510089157e+03 3.162277660168379256e+01
4.248609752083290005e+03 5.623413251903490817e+01
4.572972337375776988e+03 1.000000000000000000e+02
4.933021375013498982e+03 1.778279410038922776e+02
5.348875373410048269e+03 3.162277660168379612e+02
