# Temperature (K), Pressure (bars)
2.229798816233457273e+03 9.999999999999999547e-07
2.236557478687052026e+03 1.778279410038922901e-06
2.243316141140647233e+03 3.162277660168379191e-06
2.263314746549891424e+03 5.623413251903491208e-06
2.288581687777371826e+03 1.000000000000000082e-05
2.314611057376402186e+03 1.778279410038922901e-05
2.342672907286704231e+03 3.162277660168379530e-05
2.372413733186032005e+03 5.623413251903490700e-05
2.403261159429014242e+03 1.000000000000000048e-04
2.435407082274820823e+03 1.778279410038922698e-04
2.469620638355057054e+03 3.162277660168379394e-04
2.505042598999218626e+03 5.623413251903490971e-04
2.541075769232697894e+03 1.000000000000000021e-03
2.579171140559382366e+03 1.778279410038922752e-03
2.622811914891990000e+03 3.162277660168379394e-03
2.671088358155310743e+03 5.623413251903490971e-03
2.720886950387635807e+03 1.000000000000000021e-02
2.761704648245946373e+03 1.778279410038922925e-02
2.812412885562169777e+03 3.162277660168379134e-02
2.914962806326860573e+03 5.623413251903491145e-02
3.053426344375802273e+03 1.000000000000000056e-01
3.203595488175399169e+03 1.778279410038922925e-01
3.372005724283128529e+03 3.162277660168379412e-01
3.562975568630612543e+03 5.623413251903490728e-01
3.779777450208562186e+03 1.000000000000000000e+00
4.025015198943814994e+03 1.778279410038922759e+00
4.303884246114029338e+03 3.162277660168379523e+00
4.627365944687053343e+03 5.623413251903491172e+00
5.004646223304327577e+03 1.000000000000000000e+01
5.477190118602567054e+03 1.778279410038922848e+01
6.102057913086809094e+03 3.162277660168379256e+01
6.985236540802545278e+03 5.623413251903490817e+01
8.277627912394440500e+03 1.000000000000000000e+02
1.000000000000000000e+04 1.778279410038922776e+02
1.000000000000000000e+04 3.162277660168379612e+02
