# Temperature (K), Pressure (bars)
1.044428317546449989e+03 9.999999999999999547e-07
1.045124772226625737e+03 1.778279410038922901e-06
1.045821226913475584e+03 3.162277660168379191e-06
1.053174632962410669e+03 5.623413251903491208e-06
1.067713234937944662e+03 1.000000000000000082e-05
1.089077284161128318e+03 1.778279410038922901e-05
1.117152220129451507e+03 3.162277660168379530e-05
1.150048405106992504e+03 5.623413251903490700e-05
1.187419086639155921e+03 1.000000000000000048e-04
1.229903340191936422e+03 1.778279410038922698e-04
1.277527183325840269e+03 3.162277660168379394e-04
1.332640491328079861e+03 5.623413251903490971e-04
1.397966520484707871e+03 1.000000000000000021e-03
1.469762941482464157e+03 1.778279410038922752e-03
1.548589767511346054e+03 3.162277660168379394e-03
1.639175470264002342e+03 5.623413251903490971e-03
1.732114563118080696e+03 1.000000000000000021e-02
1.827291865936671002e+03 1.778279410038922925e-02
1.931020182942480687e+03 3.162277660168379134e-02
2.067201473171182442e+03 5.623413251903491145e-02
2.258743089308944491e+03 1.000000000000000056e-01
2.464562985358026708e+03 1.778279410038922925e-01
2.655740515202335700e+03 3.162277660168379412e-01
2.843905783296549998e+03 5.623413251903490728e-01
3.034310322641219500e+03 1.000000000000000000e+00
3.230220553515837310e+03 1.778279410038922759e+00
3.434680819064576554e+03 3.162277660168379523e+00
3.651743832007491619e+03 5.623413251903491172e+00
3.886254244236522936e+03 1.000000000000000000e+01
4.143522992276870355e+03 1.778279410038922848e+01
4.429702989511082706e+03 3.162277660168379256e+01
4.752784534254483333e+03 5.623413251903490817e+01
5.127505963348843579e+03 1.000000000000000000e+02
5.562854928981998455e+03 1.778279410038922776e+02
6.076967007326843486e+03 3.162277660168379612e+02
