# Temperature (K), Pressure (bars)
1.515336249480165634e+03 9.999999999999999547e-07
1.542840620448964728e+03 1.778279410038922901e-06
1.570344991417764504e+03 3.162277660168379191e-06
1.603715646732903224e+03 5.623413251903491208e-06
1.644365483145378448e+03 1.000000000000000082e-05
1.692055930752145287e+03 1.778279410038922901e-05
1.746744321689767730e+03 3.162277660168379530e-05
1.808111485488293738e+03 5.623413251903490700e-05
1.874112467232796689e+03 1.000000000000000048e-04
1.944283197686403810e+03 1.778279410038922698e-04
2.019152042023227523e+03 3.162277660168379394e-04
2.101574913769508385e+03 5.623413251903490971e-04
2.198711037669622783e+03 1.000000000000000021e-03
2.310843956077026633e+03 1.778279410038922752e-03
2.431687159648056877e+03 3.162277660168379394e-03
2.558691759702786840e+03 5.623413251903490971e-03
2.692756664014760190e+03 1.000000000000000021e-02
2.835420041306016628e+03 1.778279410038922925e-02
2.988951022298752378e+03 3.162277660168379134e-02
3.157028621126024063e+03 5.623413251903491145e-02
3.348368491348800490e+03 1.000000000000000056e-01
3.539048611737018746e+03 1.778279410038922925e-01
3.758159448547278316e+03 3.162277660168379412e-01
4.015048111739858086e+03 5.623413251903490728e-01
4.313034292613308935e+03 1.000000000000000000e+00
4.697977437033111528e+03 1.778279410038922759e+00
5.243816163028523988e+03 3.162277660168379523e+00
6.092320493453121344e+03 5.623413251903491172e+00
7.394557065635827712e+03 1.000000000000000000e+01
9.091931347271485720e+03 1.778279410038922848e+01
1.000000000000000000e+04 3.162277660168379256e+01
1.000000000000000000e+04 5.623413251903490817e+01
1.000000000000000000e+04 1.000000000000000000e+02
1.000000000000000000e+04 1.778279410038922776e+02
1.000000000000000000e+04 3.162277660168379612e+02
