# Temperature (K), Pressure (bars)
9.484708277556439953e+02 3.162277660168379394e-04
1.005572630509194596e+03 5.623413251903490971e-04
1.062674434301486372e+03 1.000000000000000021e-03
1.117615699295054583e+03 1.778279410038922752e-03
1.171650935862784081e+03 3.162277660168379394e-03
1.229364911464515444e+03 5.623413251903490971e-03
1.294066347026063795e+03 1.000000000000000021e-02
1.381838828466277619e+03 1.778279410038922925e-02
1.531204709183797149e+03 3.162277660168379134e-02
1.752094080942890741e+03 5.623413251903491145e-02
2.006381587948176502e+03 1.000000000000000056e-01
2.255343178978565447e+03 1.778279410038922925e-01
2.484702786735911104e+03 3.162277660168379412e-01
2.696923375575865066e+03 5.623413251903490728e-01
2.899538949770936142e+03 1.000000000000000000e+00
3.099817799779372763e+03 1.778279410038922759e+00
3.304237601529177027e+03 3.162277660168379523e+00
3.518507256845481606e+03 5.623413251903491172e+00
3.747733250557836072e+03 1.000000000000000000e+01
3.997157462506374486e+03 1.778279410038922848e+01
4.274970760097239690e+03 3.162277660168379256e+01
4.586001532008703180e+03 5.623413251903490817e+01
4.938334574159216572e+03 1.000000000000000000e+02
5.335847805395802425e+03 1.778279410038922776e+02
5.804408726574778484e+03 3.162277660168379612e+02
