# Temperature (K), Pressure (bars)
2.093946155118649585e+03 9.999999999999999547e-07
2.135258123800335397e+03 1.778279410038922901e-06
2.176570092482020755e+03 3.162277660168379191e-06
2.220553563355290407e+03 5.623413251903491208e-06
2.267034366784262147e+03 1.000000000000000082e-05
2.315373818733890857e+03 1.778279410038922901e-05
2.364110024673328098e+03 3.162277660168379530e-05
2.411286146396977529e+03 5.623413251903490700e-05
2.455979803723932491e+03 1.000000000000000048e-04
2.497542669889041917e+03 1.778279410038922698e-04
2.535901078760097789e+03 3.162277660168379394e-04
2.572807557370994346e+03 5.623413251903490971e-04
2.611454718577532731e+03 1.000000000000000021e-03
2.655990889983622310e+03 1.778279410038922752e-03
2.709320428434389669e+03 3.162277660168379394e-03
2.773645537005770166e+03 5.623413251903490971e-03
2.843524057026834726e+03 1.000000000000000021e-02
2.919653449057341732e+03 1.778279410038922925e-02
3.024938644775235389e+03 3.162277660168379134e-02
3.169301008161473874e+03 5.623413251903491145e-02
3.349999400718923880e+03 1.000000000000000056e-01
3.540705019365136195e+03 1.778279410038922925e-01
3.763673104788446381e+03 3.162277660168379412e-01
4.023392832704420925e+03 5.623413251903490728e-01
4.326795848175283936e+03 1.000000000000000000e+00
4.721473345184939717e+03 1.778279410038922759e+00
5.284952395191463438e+03 3.162277660168379523e+00
6.167794486769952528e+03 5.623413251903491172e+00
7.523935270989214587e+03 1.000000000000000000e+01
9.240601713606391058e+03 1.778279410038922848e+01
1.000000000000000000e+04 3.162277660168379256e+01
1.000000000000000000e+04 5.623413251903490817e+01
1.000000000000000000e+04 1.000000000000000000e+02
1.000000000000000000e+04 1.778279410038922776e+02
1.000000000000000000e+04 3.162277660168379612e+02
