# Temperature (K), Pressure (bars)
2.310713188581586110e+03 9.999999999999999547e-07
2.332148204034934679e+03 1.778279410038922901e-06
2.353583219488283703e+03 3.162277660168379191e-06
2.376268881447885178e+03 5.623413251903491208e-06
2.399835714692438614e+03 1.000000000000000082e-05
2.423772069228665714e+03 1.778279410038922901e-05
2.447795598749068176e+03 3.162277660168379530e-05
2.469863902056536972e+03 5.623413251903490700e-05
2.486410533444682642e+03 1.000000000000000048e-04
2.495850068518329408e+03 1.778279410038922698e-04
2.502964642639137764e+03 3.162277660168379394e-04
2.516930913051428888e+03 5.623413251903490971e-04
2.543908036504324627e+03 1.000000000000000021e-03
2.584578358763973483e+03 1.778279410038922752e-03
2.638307928182985052e+03 3.162277660168379394e-03
2.704750661072979710e+03 5.623413251903490971e-03
2.787334216830979130e+03 1.000000000000000021e-02
2.892402780356883341e+03 1.778279410038922925e-02
3.018387817991924294e+03 3.162277660168379134e-02
3.161138240901827430e+03 5.623413251903491145e-02
3.323087755491025746e+03 1.000000000000000056e-01
3.511310514567890095e+03 1.778279410038922925e-01
3.718553178515449417e+03 3.162277660168379412e-01
3.962952789098379071e+03 5.623413251903490728e-01
4.241402016599833587e+03 1.000000000000000000e+00
4.590005049639812569e+03 1.778279410038922759e+00
5.059279772666581266e+03 3.162277660168379523e+00
5.755697683534592215e+03 5.623413251903491172e+00
6.852636660741560263e+03 1.000000000000000000e+01
8.416644713845338629e+03 1.778279410038922848e+01
1.000000000000000000e+04 3.162277660168379256e+01
1.000000000000000000e+04 5.623413251903490817e+01
1.000000000000000000e+04 1.000000000000000000e+02
1.000000000000000000e+04 1.778279410038922776e+02
1.000000000000000000e+04 3.162277660168379612e+02
