# Temperature (K), Pressure (bars)
9.628192842993944396e+02 1.000000000000000082e-05
1.014427944506128824e+03 1.778279410038922901e-05
1.066036606603462815e+03 3.162277660168379530e-05
1.117652377609308360e+03 5.623413251903490700e-05
1.168507348631505238e+03 1.000000000000000048e-04
1.221485651932594465e+03 1.778279410038922698e-04
1.280153889101104824e+03 3.162277660168379394e-04
1.351997787244458550e+03 5.623413251903490971e-04
1.434801826882375735e+03 1.000000000000000021e-03
1.520505556140872159e+03 1.778279410038922752e-03
1.614102963558023930e+03 3.162277660168379394e-03
1.706523263442348707e+03 5.623413251903490971e-03
1.788698723430393329e+03 1.000000000000000021e-02
1.878129758054248896e+03 1.778279410038922925e-02
1.980620561674958253e+03 3.162277660168379134e-02
2.116350014152934818e+03 5.623413251903491145e-02
2.307914984352275951e+03 1.000000000000000056e-01
2.510551125145024344e+03 1.778279410038922925e-01
2.696994854939054221e+03 3.162277660168379412e-01
2.882740408597709575e+03 5.623413251903490728e-01
3.072179086449851184e+03 1.000000000000000000e+00
3.267638143842374575e+03 1.778279410038922759e+00
3.472127691179767680e+03 3.162277660168379523e+00
3.689957067332057704e+03 5.623413251903491172e+00
3.926066971460515560e+03 1.000000000000000000e+01
4.185850931629980550e+03 1.778279410038922848e+01
4.475623597734619580e+03 3.162277660168379256e+01
4.803699038328795723e+03 5.623413251903490817e+01
5.185355223334901893e+03 1.000000000000000000e+02
5.630298532362945480e+03 1.778279410038922776e+02
6.157953137939610315e+03 3.162277660168379612e+02
