# Temperature (K), Pressure (bars)
9.029960323701582183e+02 3.162277660168379530e-05
9.567431588014068211e+02 5.623413251903490700e-05
1.010490292894709796e+03 1.000000000000000048e-04
1.062922843337391441e+03 1.778279410038922698e-04
1.115516822264203483e+03 3.162277660168379394e-04
1.169875498228673905e+03 5.623413251903490971e-04
1.227389423071285364e+03 1.000000000000000021e-03
1.290626533570194852e+03 1.778279410038922752e-03
1.361741442353272305e+03 3.162277660168379394e-03
1.448821592027766428e+03 5.623413251903490971e-03
1.563494355264455862e+03 1.000000000000000021e-02
1.733646105344510488e+03 1.778279410038922925e-02
1.967103384972709136e+03 3.162277660168379134e-02
2.206254377114816634e+03 5.623413251903491145e-02
2.417288455618832813e+03 1.000000000000000056e-01
2.611980682484988847e+03 1.778279410038922925e-01
2.797959786780998911e+03 3.162277660168379412e-01
2.981071506180087454e+03 5.623413251903490728e-01
3.166023285826195206e+03 1.000000000000000000e+00
3.357483602327822155e+03 1.778279410038922759e+00
3.560170227539340431e+03 3.162277660168379523e+00
3.778684366561097704e+03 5.623413251903491172e+00
4.017825016758910806e+03 1.000000000000000000e+01
4.283045788767574777e+03 1.778279410038922848e+01
4.581023640564040761e+03 3.162277660168379256e+01
4.920798401062610537e+03 5.623413251903490817e+01
5.318999926113959191e+03 1.000000000000000000e+02
5.786878771087579480e+03 1.778279410038922776e+02
6.346586926262304587e+03 3.162277660168379612e+02
