# Temperature (K), Pressure (bars)
1.903692168721459439e+03 9.999999999999999547e-07
1.924174690344955252e+03 1.778279410038922901e-06
1.944657211968451065e+03 3.162277660168379191e-06
1.969330913038312474e+03 5.623413251903491208e-06
2.000612011420633280e+03 1.000000000000000082e-05
2.038103939162551342e+03 1.778279410038922901e-05
2.079164846481342011e+03 3.162277660168379530e-05
2.122021177621837523e+03 5.623413251903490700e-05
2.166712281514875485e+03 1.000000000000000048e-04
2.213694448890128569e+03 1.778279410038922698e-04
2.263945917077917784e+03 3.162277660168379394e-04
2.319569292686897825e+03 5.623413251903490971e-04
2.381377408571012893e+03 1.000000000000000021e-03
2.453099347153574854e+03 1.778279410038922752e-03
2.542053291322686619e+03 3.162277660168379394e-03
2.647517508627659936e+03 5.623413251903490971e-03
2.765232015498589590e+03 1.000000000000000021e-02
2.895259098230337258e+03 1.778279410038922925e-02
3.039317998097705640e+03 3.162277660168379134e-02
3.200606480295091842e+03 5.623413251903491145e-02
3.386422086055451473e+03 1.000000000000000056e-01
3.580929188938176594e+03 1.778279410038922925e-01
3.809892267647564495e+03 3.162277660168379412e-01
4.080756958220763863e+03 5.623413251903490728e-01
4.407822789095253029e+03 1.000000000000000000e+00
4.850759558412525621e+03 1.778279410038922759e+00
5.514913989638448584e+03 3.162277660168379523e+00
6.522393349094909354e+03 5.623413251903491172e+00
7.995385861331398701e+03 1.000000000000000000e+01
9.757278444959960325e+03 1.778279410038922848e+01
1.000000000000000000e+04 3.162277660168379256e+01
1.000000000000000000e+04 5.623413251903490817e+01
1.000000000000000000e+04 1.000000000000000000e+02
1.000000000000000000e+04 1.778279410038922776e+02
1.000000000000000000e+04 3.162277660168379612e+02
