# Temperature (K), Pressure (bars)
1.007502892621926549e+03 3.162277660168379394e-04
1.037689215530906722e+03 5.623413251903490971e-04
1.067875535364939196e+03 1.000000000000000021e-03
1.093085207925355917e+03 1.778279410038922752e-03
1.115609949994610133e+03 3.162277660168379394e-03
1.138631765057873281e+03 5.623413251903490971e-03
1.163856261082873289e+03 1.000000000000000021e-02
1.193585504592737152e+03 1.778279410038922925e-02
1.229968700945110186e+03 3.162277660168379134e-02
1.275907396335377371e+03 5.623413251903491145e-02
1.329844070217952776e+03 1.000000000000000056e-01
1.390623302954055589e+03 1.778279410038922925e-01
1.472491527317036571e+03 3.162277660168379412e-01
1.585097758703405589e+03 5.623413251903490728e-01
1.737867814598140285e+03 1.000000000000000000e+00
1.962186098319994926e+03 1.778279410038922759e+00
2.249300280281865525e+03 3.162277660168379523e+00
2.543989854259074036e+03 5.623413251903491172e+00
2.825495299915127816e+03 1.000000000000000000e+01
3.102160241830235464e+03 1.778279410038922848e+01
3.382266548615502415e+03 3.162277660168379256e+01
3.672109887986058766e+03 5.623413251903490817e+01
3.979437471455173181e+03 1.000000000000000000e+02
4.308501483916829784e+03 1.778279410038922776e+02
4.674588767105349689e+03 3.162277660168379612e+02
