# Temperature (K), Pressure (bars)
1.050231152733430463e+03 3.162277660168379394e-04
1.119176537378527883e+03 5.623413251903490971e-04
1.188121924032172046e+03 1.000000000000000021e-03
1.253265651747848096e+03 1.778279410038922752e-03
1.317500767935698150e+03 3.162277660168379394e-03
1.386343248060891256e+03 5.623413251903490971e-03
1.456521779791528843e+03 1.000000000000000021e-02
1.531944959149700480e+03 1.778279410038922925e-02
1.624575037494047137e+03 3.162277660168379134e-02
1.715447108324272449e+03 5.623413251903491145e-02
1.794514917331235210e+03 1.000000000000000056e-01
1.880351799708992758e+03 1.778279410038922925e-01
1.985450146105729573e+03 3.162277660168379412e-01
2.116156075954220796e+03 5.623413251903490728e-01
2.303526344056451762e+03 1.000000000000000000e+00
2.556363268584465459e+03 1.778279410038922759e+00
2.815581680169962965e+03 3.162277660168379523e+00
3.056635602856535570e+03 5.623413251903491172e+00
3.298278839602397056e+03 1.000000000000000000e+01
3.547900548223689384e+03 1.778279410038922848e+01
3.813452398348515999e+03 3.162277660168379256e+01
4.100949341653325064e+03 5.623413251903490817e+01
4.417214949683055238e+03 1.000000000000000000e+02
4.765501919835043736e+03 1.778279410038922776e+02
5.164152568026821427e+03 3.162277660168379612e+02
