# Temperature (K), Pressure (bars)
9.980163777997037187e+02 3.162277660168379394e-04
1.048355452433373785e+03 5.623413251903490971e-04
1.098694528968308077e+03 1.000000000000000021e-03
1.147785329749286348e+03 1.778279410038922752e-03
1.197496758445726755e+03 3.162277660168379394e-03
1.249197764396545608e+03 5.623413251903490971e-03
1.302533746436081174e+03 1.000000000000000021e-02
1.358762965604131068e+03 1.778279410038922925e-02
1.419477991872584198e+03 3.162277660168379134e-02
1.492202860868177368e+03 5.623413251903491145e-02
1.592598213050629511e+03 1.000000000000000056e-01
1.731505673795156781e+03 1.778279410038922925e-01
1.907562485175734309e+03 3.162277660168379412e-01
2.127168865829959941e+03 5.623413251903490728e-01
2.385862603386217415e+03 1.000000000000000000e+00
2.642264990348603988e+03 1.778279410038922759e+00
2.880461790197395203e+03 3.162277660168379523e+00
3.114926759293670784e+03 5.623413251903491172e+00
3.352799820664881281e+03 1.000000000000000000e+01
3.600392550944196955e+03 1.778279410038922848e+01
3.865677780344675284e+03 3.162277660168379256e+01
4.154253570358896468e+03 5.623413251903490817e+01
4.472862342586082377e+03 1.000000000000000000e+02
4.824615207493161506e+03 1.778279410038922776e+02
5.228687160450320334e+03 3.162277660168379612e+02
