# Temperature (K), Pressure (bars)
1.060922680871427019e+03 3.162277660168379394e-03
1.091830444009314306e+03 5.623413251903490971e-03
1.122738205676212601e+03 1.000000000000000021e-02
1.145769585309121567e+03 1.778279410038922925e-02
1.165702010560654799e+03 3.162277660168379134e-02
1.190416428782682260e+03 5.623413251903491145e-02
1.223684620020379270e+03 1.000000000000000056e-01
1.266357317263675441e+03 1.778279410038922925e-01
1.320739193536624271e+03 3.162277660168379412e-01
1.393405630056895916e+03 5.623413251903490728e-01
1.488282159014753461e+03 1.000000000000000000e+00
1.609814258764230090e+03 1.778279410038922759e+00
1.767875950216978936e+03 3.162277660168379523e+00
1.989526097031462314e+03 5.623413251903491172e+00
2.281079734494998775e+03 1.000000000000000000e+01
2.594389532922082253e+03 1.778279410038922848e+01
2.905094310830264021e+03 3.162277660168379256e+01
3.216911397599413249e+03 5.623413251903490817e+01
3.534528983986899220e+03 1.000000000000000000e+02
3.862542625669585050e+03 1.778279410038922776e+02
4.215354537646476274e+03 3.162277660168379612e+02
