# Temperature (K), Pressure (bars)
2.182858867944004032e+03 9.999999999999999547e-07
2.190708718715402483e+03 1.778279410038922901e-06
2.198558569486800934e+03 3.162277660168379191e-06
2.219081780076556242e+03 5.623413251903491208e-06
2.247020731331811476e+03 1.000000000000000082e-05
2.275736035957241711e+03 1.778279410038922901e-05
2.309008366632773686e+03 3.162277660168379530e-05
2.348817894406592586e+03 5.623413251903490700e-05
2.395255852846322341e+03 1.000000000000000048e-04
2.449700706616328716e+03 1.778279410038922698e-04
2.510676437055596125e+03 3.162277660168379394e-04
2.576004000731049018e+03 5.623413251903490971e-04
2.644520202509425417e+03 1.000000000000000021e-03
2.714625003076981102e+03 1.778279410038922752e-03
2.783288781993722750e+03 3.162277660168379394e-03
2.847874590961611375e+03 5.623413251903490971e-03
2.906205905507227726e+03 1.000000000000000021e-02
2.962670761164287796e+03 1.778279410038922925e-02
3.013553112419820991e+03 3.162277660168379134e-02
3.069954847252117361e+03 5.623413251903491145e-02
3.174277596648393683e+03 1.000000000000000056e-01
3.327852440864604432e+03 1.778279410038922925e-01
3.509110506188258114e+03 3.162277660168379412e-01
3.719766752282508151e+03 5.623413251903490728e-01
3.965330913347455862e+03 1.000000000000000000e+00
4.254105403407314043e+03 1.778279410038922759e+00
4.571492229387922634e+03 3.162277660168379523e+00
4.966062941001017862e+03 5.623413251903491172e+00
5.486573780839327810e+03 1.000000000000000000e+01
6.232195556247504101e+03 1.778279410038922848e+01
7.369105877181460528e+03 3.162277660168379256e+01
8.980391858115348441e+03 5.623413251903490817e+01
1.000000000000000000e+04 1.000000000000000000e+02
1.000000000000000000e+04 1.778279410038922776e+02
1.000000000000000000e+04 3.162277660168379612e+02
