# Temperature (K), Pressure (bars)
1.838526081063440415e+03 3.162277660168379191e-06
1.845620167701761602e+03 5.623413251903491208e-06
1.852714268149248710e+03 1.000000000000000082e-05
1.863657629927879043e+03 1.778279410038922901e-05
1.879513260094788393e+03 3.162277660168379530e-05
1.901342335143800256e+03 5.623413251903490700e-05
1.928805437648095449e+03 1.000000000000000048e-04
1.960245637404628269e+03 1.778279410038922698e-04
1.995822265680700411e+03 3.162277660168379394e-04
2.035714845317266736e+03 5.623413251903490971e-04
2.079065170230496278e+03 1.000000000000000021e-03
2.125819996146018639e+03 1.778279410038922752e-03
2.176699419529163606e+03 3.162277660168379394e-03
2.232212545954277175e+03 5.623413251903490971e-03
2.295163799898554316e+03 1.000000000000000021e-02
2.368227835396078262e+03 1.778279410038922925e-02
2.465381199411393027e+03 3.162277660168379134e-02
2.596775886038504723e+03 5.623413251903491145e-02
2.742298671804752303e+03 1.000000000000000056e-01
2.891119171697594538e+03 1.778279410038922925e-01
3.050048321260272587e+03 3.162277660168379412e-01
3.221650510782978927e+03 5.623413251903490728e-01
3.407930273794012010e+03 1.000000000000000000e+00
3.610251845715185937e+03 1.778279410038922759e+00
3.830398669190057717e+03 3.162277660168379523e+00
4.072064413675988362e+03 5.623413251903491172e+00
4.341165257243513224e+03 1.000000000000000000e+01
4.645730708063464590e+03 1.778279410038922848e+01
4.996767750052766132e+03 3.162277660168379256e+01
5.412127092972061291e+03 5.623413251903490817e+01
5.911911637884669290e+03 1.000000000000000000e+02
6.529396621306577799e+03 1.778279410038922776e+02
7.318460304262193858e+03 3.162277660168379612e+02
