# Temperature (K), Pressure (bars)
2.283341741220663152e+03 1.778279410038922901e-06
2.294683786373112980e+03 3.162277660168379191e-06
2.306025836773767878e+03 5.623413251903491208e-06
2.329026710196212662e+03 1.000000000000000082e-05
2.359012528777600437e+03 1.778279410038922901e-05
2.392953216183702352e+03 3.162277660168379530e-05
2.432315631722186481e+03 5.623413251903490700e-05
2.477925044014004925e+03 1.000000000000000048e-04
2.529859188686549260e+03 1.778279410038922698e-04
2.588103243598000972e+03 3.162277660168379394e-04
2.653020871653664017e+03 5.623413251903490971e-04
2.723252735794628279e+03 1.000000000000000021e-03
2.796664723799704916e+03 1.778279410038922752e-03
2.870173693192892188e+03 3.162277660168379394e-03
2.938457152385113204e+03 5.623413251903490971e-03
2.998313212729069619e+03 1.000000000000000021e-02
3.049038189337902168e+03 1.778279410038922925e-02
3.102425784464430762e+03 3.162277660168379134e-02
3.159786747380996985e+03 5.623413251903491145e-02
3.243270420081512384e+03 1.000000000000000056e-01
3.397177328812842006e+03 1.778279410038922925e-01
3.595402926904535889e+03 3.162277660168379412e-01
3.815043211104974489e+03 5.623413251903490728e-01
4.077702214341977196e+03 1.000000000000000000e+00
4.375351702932028275e+03 1.778279410038922759e+00
4.735413086150306299e+03 3.162277660168379523e+00
5.207477920341027129e+03 5.623413251903491172e+00
5.882147766092065467e+03 1.000000000000000000e+01
6.925605973671928950e+03 1.778279410038922848e+01
8.444064432821089213e+03 3.162277660168379256e+01
1.000000000000000000e+04 5.623413251903490817e+01
1.000000000000000000e+04 1.000000000000000000e+02
1.000000000000000000e+04 1.778279410038922776e+02
1.000000000000000000e+04 3.162277660168379612e+02
