# Temperature (K), Pressure (bars)
9.797812534845002119e+02 1.000000000000000048e-04
1.015596604681177269e+03 1.778279410038922698e-04
1.051411953876071266e+03 3.162277660168379394e-04
1.083391611079154472e+03 5.623413251903490971e-04
1.113259069383018414e+03 1.000000000000000021e-03
1.142495966711783922e+03 1.778279410038922752e-03
1.171022812171974465e+03 3.162277660168379394e-03
1.198214703518567603e+03 5.623413251903490971e-03
1.224432936374307019e+03 1.000000000000000021e-02
1.252249872326475042e+03 1.778279410038922925e-02
1.284029442978124735e+03 3.162277660168379134e-02
1.320491283103480782e+03 5.623413251903491145e-02
1.372178973952321940e+03 1.000000000000000056e-01
1.448438105906611554e+03 1.778279410038922925e-01
1.551175944788260722e+03 3.162277660168379412e-01
1.680798745408248806e+03 5.623413251903490728e-01
1.861571216140354409e+03 1.000000000000000000e+00
2.118388429698115942e+03 1.778279410038922759e+00
2.405724504045770118e+03 3.162277660168379523e+00
2.682697697438004980e+03 5.623413251903491172e+00
2.952622348879071069e+03 1.000000000000000000e+01
3.219754669551652114e+03 1.778279410038922848e+01
3.493343862834387892e+03 3.162277660168379256e+01
3.780112586102866317e+03 5.623413251903490817e+01
4.087464241085086087e+03 1.000000000000000000e+02
4.419480397185551737e+03 1.778279410038922776e+02
4.791684142661581973e+03 3.162277660168379612e+02
