# Temperature (K), Pressure (bars)
1.086859134259031634e+03 3.162277660168379394e-04
1.125150753498987115e+03 5.623413251903490971e-04
1.163442373595954223e+03 1.000000000000000021e-03
1.199816205258729724e+03 1.778279410038922752e-03
1.249808672247363575e+03 3.162277660168379394e-03
1.329136144189334118e+03 5.623413251903490971e-03
1.431887061681788509e+03 1.000000000000000021e-02
1.559093669196890005e+03 1.778279410038922925e-02
1.677006968249470901e+03 3.162277660168379134e-02
1.754146551956316443e+03 5.623413251903491145e-02
1.817361496969344216e+03 1.000000000000000056e-01
1.886747105549152138e+03 1.778279410038922925e-01
1.965451812585924927e+03 3.162277660168379412e-01
2.059766956940338787e+03 5.623413251903490728e-01
2.181025281781534886e+03 1.000000000000000000e+00
2.370567058538027595e+03 1.778279410038922759e+00
2.633362604066152016e+03 3.162277660168379523e+00
2.903387850968418206e+03 5.623413251903491172e+00
3.156603788426925803e+03 1.000000000000000000e+01
3.412160185478622225e+03 1.778279410038922848e+01
3.679244079705394597e+03 3.162277660168379256e+01
3.964700191225396338e+03 5.623413251903490817e+01
4.275513932883404777e+03 1.000000000000000000e+02
4.614877076244955788e+03 1.778279410038922776e+02
5.000271226737539109e+03 3.162277660168379612e+02
