# Temperature (K), Pressure (bars)
7.894461020018616182e+02 3.162277660168379394e-04
8.324063098636320319e+02 5.623413251903490971e-04
8.753665186807749024e+02 1.000000000000000021e-03
9.181165809955761006e+02 1.778279410038922752e-03
9.608784254368246138e+02 3.162277660168379394e-03
1.004870757082534396e+03 5.623413251903490971e-03
1.052470816578069162e+03 1.000000000000000021e-02
1.106630511126293868e+03 1.778279410038922925e-02
1.174534478414571822e+03 3.162277660168379134e-02
1.259310100416662181e+03 5.623413251903491145e-02
1.382524644020606956e+03 1.000000000000000056e-01
1.578135248627463852e+03 1.778279410038922925e-01
1.827525342196131305e+03 3.162277660168379412e-01
2.093663647493539884e+03 5.623413251903490728e-01
2.359121284620956430e+03 1.000000000000000000e+00
2.612718317434520486e+03 1.778279410038922759e+00
2.854094700113555973e+03 3.162277660168379523e+00
3.089560320025914734e+03 5.623413251903491172e+00
3.326993244879408849e+03 1.000000000000000000e+01
3.573740296511758970e+03 1.778279410038922848e+01
3.838599924898952395e+03 3.162277660168379256e+01
4.126233080096175399e+03 5.623413251903490817e+01
4.443298177476386627e+03 1.000000000000000000e+02
4.792679344576194126e+03 1.778279410038922776e+02
5.193455626607747035e+03 3.162277660168379612e+02
