# Temperature (K), Pressure (bars)
1.916494850205896682e+03 9.999999999999999547e-07
1.933052445316454850e+03 1.778279410038922901e-06
1.949610040427728336e+03 3.162277660168379191e-06
1.970779152700678424e+03 5.623413251903491208e-06
1.999513821133613419e+03 1.000000000000000082e-05
2.034806878669867274e+03 1.778279410038922901e-05
2.072644588837646552e+03 3.162277660168379530e-05
2.109855987046182690e+03 5.623413251903490700e-05
2.145526417478592521e+03 1.000000000000000048e-04
2.180203602173231047e+03 1.778279410038922698e-04
2.215396274027771597e+03 3.162277660168379394e-04
2.253617082559325354e+03 5.623413251903490971e-04
2.296723650955320409e+03 1.000000000000000021e-03
2.347227634439665053e+03 1.778279410038922752e-03
2.405679346159428860e+03 3.162277660168379394e-03
2.478764038726406397e+03 5.623413251903490971e-03
2.577011803540632627e+03 1.000000000000000021e-02
2.692895508041257017e+03 1.778279410038922925e-02
2.818227484937316149e+03 3.162277660168379134e-02
2.955258482878331051e+03 5.623413251903491145e-02
3.105956755990175679e+03 1.000000000000000056e-01
3.273183804772153962e+03 1.778279410038922925e-01
3.460101597638028579e+03 3.162277660168379412e-01
3.669510943169746497e+03 5.623413251903490728e-01
3.904339995975728471e+03 1.000000000000000000e+00
4.170783253056561080e+03 1.778279410038922759e+00
4.480678844270419177e+03 3.162277660168379523e+00
4.841462786781048635e+03 5.623413251903491172e+00
5.298248294131248258e+03 1.000000000000000000e+01
5.910518095055142112e+03 1.778279410038922848e+01
6.786667297522387344e+03 3.162277660168379256e+01
8.096303537656577646e+03 5.623413251903490817e+01
9.872826360355607903e+03 1.000000000000000000e+02
1.202113889164139800e+04 1.778279410038922776e+02
1.458046666199705760e+04 3.162277660168379612e+02
