# Temperature (K), Pressure (bars)
2.388683751389630288e+03 9.999999999999999547e-07
2.409674448331739313e+03 1.778279410038922901e-06
2.430665145273847884e+03 3.162277660168379191e-06
2.461324428749756862e+03 5.623413251903491208e-06
2.492527632024549348e+03 1.000000000000000082e-05
2.524521348027267777e+03 1.778279410038922901e-05
2.559689126328829843e+03 3.162277660168379530e-05
2.596374303198216239e+03 5.623413251903490700e-05
2.635191213888107086e+03 1.000000000000000048e-04
2.674916881517004185e+03 1.778279410038922698e-04
2.712979977417056034e+03 3.162277660168379394e-04
2.745115909493472827e+03 5.623413251903490971e-04
2.767440335054774550e+03 1.000000000000000021e-03
2.784665673929227523e+03 1.778279410038922752e-03
2.810418705891801892e+03 3.162277660168379394e-03
2.855369670683262939e+03 5.623413251903490971e-03
2.920018913868731033e+03 1.000000000000000021e-02
3.000111142315729012e+03 1.778279410038922925e-02
3.089162567332296021e+03 3.162277660168379134e-02
3.200331911648962432e+03 5.623413251903491145e-02
3.356202050904057160e+03 1.000000000000000056e-01
3.551094500363923544e+03 1.778279410038922925e-01
3.767068113147279291e+03 3.162277660168379412e-01
4.027308131033450081e+03 5.623413251903490728e-01
4.329080305957069868e+03 1.000000000000000000e+00
4.722202979449564737e+03 1.778279410038922759e+00
5.288255821506929351e+03 3.162277660168379523e+00
6.195612728557532137e+03 5.623413251903491172e+00
7.575420134594152842e+03 1.000000000000000000e+01
9.302018907502791990e+03 1.778279410038922848e+01
1.000000000000000000e+04 3.162277660168379256e+01
1.000000000000000000e+04 5.623413251903490817e+01
1.000000000000000000e+04 1.000000000000000000e+02
1.000000000000000000e+04 1.778279410038922776e+02
1.000000000000000000e+04 3.162277660168379612e+02
