# Temperature (K), Pressure (bars)
1.220659754449920229e+03 5.623413251903490971e-04
1.256634757791551920e+03 1.000000000000000021e-03
1.292609764331491533e+03 1.778279410038922752e-03
1.333398432273598473e+03 3.162277660168379394e-03
1.379853470889236178e+03 5.623413251903490971e-03
1.433058252432446352e+03 1.000000000000000021e-02
1.490892721124253285e+03 1.778279410038922925e-02
1.551562632423129116e+03 3.162277660168379134e-02
1.623899513803090485e+03 5.623413251903491145e-02
1.709298111658880316e+03 1.000000000000000056e-01
1.797318048786167992e+03 1.778279410038922925e-01
1.889071754541945438e+03 3.162277660168379412e-01
2.001217891142710869e+03 5.623413251903490728e-01
2.136459660361089846e+03 1.000000000000000000e+00
2.315916539510702933e+03 1.778279410038922759e+00
2.565602091769469098e+03 3.162277660168379523e+00
2.836250462210377918e+03 5.623413251903491172e+00
3.093315486673264331e+03 1.000000000000000000e+01
3.351938624189772327e+03 1.778279410038922848e+01
3.620730838699397736e+03 3.162277660168379256e+01
3.906233884568999201e+03 5.623413251903490817e+01
4.215578688961974876e+03 1.000000000000000000e+02
4.552236190471280679e+03 1.778279410038922776e+02
4.932959683384090567e+03 3.162277660168379612e+02
