# Temperature (K), Pressure (bars)
1.973020977832198923e+03 9.999999999999999547e-07
2.011965226327597065e+03 1.778279410038922901e-06
2.050909474822995435e+03 3.162277660168379191e-06
2.093700672581748222e+03 5.623413251903491208e-06
2.139144165225558481e+03 1.000000000000000082e-05
2.184558073380749192e+03 1.778279410038922901e-05
2.227423220101487914e+03 3.162277660168379530e-05
2.266486445262977213e+03 5.623413251903490700e-05
2.302212908216471988e+03 1.000000000000000048e-04
2.335436472085562855e+03 1.778279410038922698e-04
2.367594118545342553e+03 3.162277660168379394e-04
2.401202639821510274e+03 5.623413251903490971e-04
2.438873212701362718e+03 1.000000000000000021e-03
2.482676820123828293e+03 1.778279410038922752e-03
2.532262601880602233e+03 3.162277660168379394e-03
2.585976816179095749e+03 5.623413251903490971e-03
2.638779940211796202e+03 1.000000000000000021e-02
2.709484393401919078e+03 1.778279410038922925e-02
2.825057265605682005e+03 3.162277660168379134e-02
2.968403110337900216e+03 5.623413251903491145e-02
3.125822170292433384e+03 1.000000000000000056e-01
3.304755775617896688e+03 1.778279410038922925e-01
3.505397118434558706e+03 3.162277660168379412e-01
3.728025086445919442e+03 5.623413251903490728e-01
3.976697569214443774e+03 1.000000000000000000e+00
4.261603392334178352e+03 1.778279410038922759e+00
4.581425246453891305e+03 3.162277660168379523e+00
4.979763465077525325e+03 5.623413251903491172e+00
5.506098178854478647e+03 1.000000000000000000e+01
6.259740882094035442e+03 1.778279410038922848e+01
7.410122301090555084e+03 3.162277660168379256e+01
9.035611338240109035e+03 5.623413251903490817e+01
1.000000000000000000e+04 1.000000000000000000e+02
1.000000000000000000e+04 1.778279410038922776e+02
1.000000000000000000e+04 3.162277660168379612e+02
