# Temperature (K), Pressure (bars)
9.298176637560973177e+02 5.623413251903491208e-06
9.833198682091447154e+02 1.000000000000000082e-05
1.036872883289981473e+03 1.778279410038922901e-05
1.088948715998957596e+03 3.162277660168379530e-05
1.141163027949055959e+03 5.623413251903490700e-05
1.195330997939681083e+03 1.000000000000000048e-04
1.252357079892037746e+03 1.778279410038922698e-04
1.314140481352455026e+03 3.162277660168379394e-04
1.382958504163466841e+03 5.623413251903490971e-04
1.462443543993636240e+03 1.000000000000000021e-03
1.554827644869898450e+03 1.778279410038922752e-03
1.674004804046077197e+03 3.162277660168379394e-03
1.845284756160676125e+03 5.623413251903490971e-03
2.055101023721367710e+03 1.000000000000000021e-02
2.262232231771408806e+03 1.778279410038922925e-02
2.452415425101649362e+03 3.162277660168379134e-02
2.631447887158274170e+03 5.623413251903491145e-02
2.805018490803096029e+03 1.000000000000000056e-01
2.977316556434291670e+03 1.778279410038922925e-01
3.151658407316872854e+03 3.162277660168379412e-01
3.331457633244644967e+03 5.623413251903490728e-01
3.520870034883218977e+03 1.000000000000000000e+00
3.724585777829789549e+03 1.778279410038922759e+00
3.947650783648849938e+03 3.162277660168379523e+00
4.195813440375866776e+03 5.623413251903491172e+00
4.476228478404483212e+03 1.000000000000000000e+01
4.798733328901750610e+03 1.778279410038922848e+01
5.179906781204680556e+03 3.162277660168379256e+01
5.636980366378998951e+03 5.623413251903490817e+01
6.200071145075292407e+03 1.000000000000000000e+02
6.915495221650279746e+03 1.778279410038922776e+02
7.856034239799867464e+03 3.162277660168379612e+02
