# Temperature (K), Pressure (bars)
1.013966166799942926e+03 1.000000000000000021e-03
1.054536266679910568e+03 1.778279410038922752e-03
1.095106368931088582e+03 3.162277660168379394e-03
1.136367468975875681e+03 5.623413251903490971e-03
1.178605338914861477e+03 1.000000000000000021e-02
1.223015332918386321e+03 1.778279410038922925e-02
1.269843246821423918e+03 3.162277660168379134e-02
1.320297162141790295e+03 5.623413251903491145e-02
1.378697715286632274e+03 1.000000000000000056e-01
1.448780694819043902e+03 1.778279410038922925e-01
1.535483979124963525e+03 3.162277660168379412e-01
1.642529438939914144e+03 5.623413251903490728e-01
1.774980626047204623e+03 1.000000000000000000e+00
1.926981556494944698e+03 1.778279410038922759e+00
2.125201642844312119e+03 3.162277660168379523e+00
2.403874151442705625e+03 5.623413251903491172e+00
2.706990555970117384e+03 1.000000000000000000e+01
2.993506640145292749e+03 1.778279410038922848e+01
3.280056481945463020e+03 3.162277660168379256e+01
3.573260074182524477e+03 5.623413251903490817e+01
3.881148752378432619e+03 1.000000000000000000e+02
4.208554060990810285e+03 1.778279410038922776e+02
4.570222478603074705e+03 3.162277660168379612e+02
