# Temperature (K), Pressure (bars)
1.261007750834568697e+03 3.162277660168379191e-06
1.330561880932727945e+03 5.623413251903491208e-06
1.400116017859643080e+03 1.000000000000000082e-05
1.505296559548196683e+03 1.778279410038922901e-05
1.602874416990959389e+03 3.162277660168379530e-05
1.676254096178440705e+03 5.623413251903490700e-05
1.749540818638644623e+03 1.000000000000000048e-04
1.819788760769845794e+03 1.778279410038922698e-04
1.877430756551387958e+03 3.162277660168379394e-04
1.925853209517490768e+03 5.623413251903490971e-04
1.967332521563953378e+03 1.000000000000000021e-03
2.004345047457235978e+03 1.778279410038922752e-03
2.039694936820547809e+03 3.162277660168379394e-03
2.075133463138919524e+03 5.623413251903490971e-03
2.112901787167416387e+03 1.000000000000000021e-02
2.156128044602617138e+03 1.778279410038922925e-02
2.206427897459040651e+03 3.162277660168379134e-02
2.269603575488456045e+03 5.623413251903491145e-02
2.345866203484086782e+03 1.000000000000000056e-01
2.453700452544555446e+03 1.778279410038922925e-01
2.618224785942220024e+03 3.162277660168379412e-01
2.806638630115324759e+03 5.623413251903490728e-01
2.993437670666345639e+03 1.000000000000000000e+00
3.188221371283810640e+03 1.778279410038922759e+00
3.393713946490740000e+03 3.162277660168379523e+00
3.612148443620222224e+03 5.623413251903491172e+00
3.847080311105719375e+03 1.000000000000000000e+01
4.103594182933149568e+03 1.778279410038922848e+01
4.389401521912706812e+03 3.162277660168379256e+01
4.711387118555696361e+03 5.623413251903490817e+01
5.078732652242303629e+03 1.000000000000000000e+02
5.495651698893431785e+03 1.778279410038922776e+02
5.991795498481547838e+03 3.162277660168379612e+02
