# Temperature (K), Pressure (bars)
1.862913264285125933e+03 9.999999999999999547e-07
1.921348805386822960e+03 1.778279410038922901e-06
1.979784346488519986e+03 3.162277660168379191e-06
2.038027382340530039e+03 5.623413251903491208e-06
2.091469086292587235e+03 1.000000000000000082e-05
2.136847816037814482e+03 1.778279410038922901e-05
2.175322403675621899e+03 3.162277660168379530e-05
2.209007138672895053e+03 5.623413251903490700e-05
2.240131006233673816e+03 1.000000000000000048e-04
2.271246714687211806e+03 1.778279410038922698e-04
2.304704235805159442e+03 3.162277660168379394e-04
2.342584657900502407e+03 5.623413251903490971e-04
2.386713224614723458e+03 1.000000000000000021e-03
2.438893332021679271e+03 1.778279410038922752e-03
2.500339843807952093e+03 3.162277660168379394e-03
2.570895589549441411e+03 5.623413251903490971e-03
2.647902274957781628e+03 1.000000000000000021e-02
2.738322916145239560e+03 1.778279410038922925e-02
2.854883351408016551e+03 3.162277660168379134e-02
2.995235251602845892e+03 5.623413251903491145e-02
3.155667065780582561e+03 1.000000000000000056e-01
3.338625181767147751e+03 1.778279410038922925e-01
3.544165920281619947e+03 3.162277660168379412e-01
3.773146692074283692e+03 5.623413251903490728e-01
4.031342005128964047e+03 1.000000000000000000e+00
4.330221700818974568e+03 1.778279410038922759e+00
4.673322699452778579e+03 3.162277660168379523e+00
5.112438012616238666e+03 5.623413251903491172e+00
5.713540487746599865e+03 1.000000000000000000e+01
6.597423224057218249e+03 1.778279410038922848e+01
7.936521625871079777e+03 3.162277660168379256e+01
9.712399736489116549e+03 5.623413251903490817e+01
1.183218650999462807e+04 1.000000000000000000e+02
1.440226946704177317e+04 1.778279410038922776e+02
1.746802940761709760e+04 3.162277660168379612e+02
