# Temperature (K), Pressure (bars)
1.116046092686600105e+03 9.999999999999999547e-07
1.117489357265237231e+03 1.778279410038922901e-06
1.118932621844567393e+03 3.162277660168379191e-06
1.126249562358889307e+03 5.623413251903491208e-06
1.139980598130852286e+03 1.000000000000000082e-05
1.159348616036052590e+03 1.778279410038922901e-05
1.185346552305830755e+03 3.162277660168379530e-05
1.218752549307714162e+03 5.623413251903490700e-05
1.258520058152638057e+03 1.000000000000000048e-04
1.303520045205509177e+03 1.778279410038922698e-04
1.353081620434134265e+03 3.162277660168379394e-04
1.407378618342789650e+03 5.623413251903490971e-04
1.467043872547446426e+03 1.000000000000000021e-03
1.532455708599938589e+03 1.778279410038922752e-03
1.606549690112539110e+03 3.162277660168379394e-03
1.692156988070977832e+03 5.623413251903490971e-03
1.793627194786874043e+03 1.000000000000000021e-02
1.929536884128270231e+03 1.778279410038922925e-02
2.106105998043592990e+03 3.162277660168379134e-02
2.296504912489597245e+03 5.623413251903491145e-02
2.479681875231804042e+03 1.000000000000000056e-01
2.656354086693971567e+03 1.778279410038922925e-01
2.832071201904971531e+03 3.162277660168379412e-01
3.011159008495440958e+03 5.623413251903490728e-01
3.196745427820719669e+03 1.000000000000000000e+00
3.391329114306157862e+03 1.778279410038922759e+00
3.597841286295059490e+03 3.162277660168379523e+00
3.820319863294785137e+03 5.623413251903491172e+00
4.063740088826436931e+03 1.000000000000000000e+01
4.333946712047126312e+03 1.778279410038922848e+01
4.638087941330060858e+03 3.162277660168379256e+01
4.985770560361766002e+03 5.623413251903490817e+01
5.394124604769880534e+03 1.000000000000000000e+02
5.876427006472187713e+03 1.778279410038922776e+02
6.457455752757176924e+03 3.162277660168379612e+02
