# Temperature (K), Pressure (bars)
1.603896521646115843e+03 9.999999999999999547e-07
1.614323499120518818e+03 1.778279410038922901e-06
1.624750476596462022e+03 3.162277660168379191e-06
1.643763986274854688e+03 5.623413251903491208e-06
1.671486657155892772e+03 1.000000000000000082e-05
1.707532895189937790e+03 1.778279410038922901e-05
1.749713621149155870e+03 3.162277660168379530e-05
1.795805005588798394e+03 5.623413251903490700e-05
1.843570023690220296e+03 1.000000000000000048e-04
1.889796702836345503e+03 1.778279410038922698e-04
1.934489407400778418e+03 3.162277660168379394e-04
1.979534156171057703e+03 5.623413251903490971e-04
2.026849221588310684e+03 1.000000000000000021e-03
2.077631126019635303e+03 1.778279410038922752e-03
2.131732488650792675e+03 3.162277660168379394e-03
2.192572994762684175e+03 5.623413251903490971e-03
2.260657349363010326e+03 1.000000000000000021e-02
2.349472749577455943e+03 1.778279410038922925e-02
2.476191460565869420e+03 3.162277660168379134e-02
2.619955044335260936e+03 5.623413251903491145e-02
2.765143516321117204e+03 1.000000000000000056e-01
2.918460641052857682e+03 1.778279410038922925e-01
3.082177295541267085e+03 3.162277660168379412e-01
3.258301040365608969e+03 5.623413251903490728e-01
3.448328271583012793e+03 1.000000000000000000e+00
3.653599707681836662e+03 1.778279410038922759e+00
3.876678266205121872e+03 3.162277660168379523e+00
4.122211643358128640e+03 5.623413251903491172e+00
4.396768461990791366e+03 1.000000000000000000e+01
4.709160706580893020e+03 1.778279410038922848e+01
5.073405897325539627e+03 3.162277660168379256e+01
5.505206132408565281e+03 5.623413251903490817e+01
6.028504204287737593e+03 1.000000000000000000e+02
6.679832071399975575e+03 1.778279410038922776e+02
7.519163279117104139e+03 3.162277660168379612e+02
