# Temperature (K), Pressure (bars)
1.697549929808065599e+03 9.999999999999999547e-07
1.717732734565250666e+03 1.778279410038922901e-06
1.737915539322435279e+03 3.162277660168379191e-06
1.761852355197951283e+03 5.623413251903491208e-06
1.793479090059447572e+03 1.000000000000000082e-05
1.833435747869566285e+03 1.778279410038922901e-05
1.880295610574866032e+03 3.162277660168379530e-05
1.933913050591899037e+03 5.623413251903490700e-05
1.993271420705737910e+03 1.000000000000000048e-04
2.057277438537854778e+03 1.778279410038922698e-04
2.125443659439648854e+03 3.162277660168379394e-04
2.198458987034096026e+03 5.623413251903490971e-04
2.281480102407713730e+03 1.000000000000000021e-03
2.378401977001965861e+03 1.778279410038922752e-03
2.486268652108838523e+03 3.162277660168379394e-03
2.602389074853820603e+03 5.623413251903490971e-03
2.727524320898122824e+03 1.000000000000000021e-02
2.863054742023789004e+03 1.778279410038922925e-02
3.010934494389428892e+03 3.162277660168379134e-02
3.174240063076400929e+03 5.623413251903491145e-02
3.360271474294329437e+03 1.000000000000000056e-01
3.550497673961436249e+03 1.778279410038922925e-01
3.770940901553680305e+03 3.162277660168379412e-01
4.032512244388337876e+03 5.623413251903490728e-01
4.337013073158691441e+03 1.000000000000000000e+00
4.734329465783680462e+03 1.778279410038922759e+00
5.305623416660345356e+03 3.162277660168379523e+00
6.189561815620368179e+03 5.623413251903491172e+00
7.510995847947737275e+03 1.000000000000000000e+01
9.225905768846650972e+03 1.778279410038922848e+01
1.000000000000000000e+04 3.162277660168379256e+01
1.000000000000000000e+04 5.623413251903490817e+01
1.000000000000000000e+04 1.000000000000000000e+02
1.000000000000000000e+04 1.778279410038922776e+02
1.000000000000000000e+04 3.162277660168379612e+02
