# Temperature (K), Pressure (bars)
1.084578169983861244e+03 1.778279410038922901e-06
1.124048525130180678e+03 3.162277660168379191e-06
1.163518881059587784e+03 5.623413251903491208e-06
1.205244881785091366e+03 1.000000000000000082e-05
1.249350615407138775e+03 1.778279410038922901e-05
1.296085733273463120e+03 3.162277660168379530e-05
1.346615395051245514e+03 5.623413251903490700e-05
1.403058646341936765e+03 1.000000000000000048e-04
1.466242746521871595e+03 1.778279410038922698e-04
1.538465390841741737e+03 3.162277660168379394e-04
1.619508801535844214e+03 5.623413251903490971e-04
1.714101885640007595e+03 1.000000000000000021e-03
1.832492888701995071e+03 1.778279410038922752e-03
1.974097827309711192e+03 3.162277660168379394e-03
2.133515807344055702e+03 5.623413251903490971e-03
2.297737654653594745e+03 1.000000000000000021e-02
2.457995218925789686e+03 1.778279410038922925e-02
2.617786157012918466e+03 3.162277660168379134e-02
2.779998583464224339e+03 5.623413251903491145e-02
2.947023147682785748e+03 1.000000000000000056e-01
3.120851731466713318e+03 1.778279410038922925e-01
3.302986505934796696e+03 3.162277660168379412e-01
3.495271224212744073e+03 5.623413251903490728e-01
3.701244401819995801e+03 1.000000000000000000e+00
3.926297679449599855e+03 1.778279410038922759e+00
4.177318773157086980e+03 3.162277660168379523e+00
4.463255824557436426e+03 5.623413251903491172e+00
4.796588135982505264e+03 1.000000000000000000e+01
5.195618778071510860e+03 1.778279410038922848e+01
5.690292197371582006e+03 3.162277660168379256e+01
6.327717038001911533e+03 5.623413251903490817e+01
7.184195855816995390e+03 1.000000000000000000e+02
8.394901355344727563e+03 1.778279410038922776e+02
1.000000000000000000e+04 3.162277660168379612e+02
