# Temperature (K), Pressure (bars)
8.436132203829868104e+02 5.623413251903491208e-06
8.983480391676768022e+02 1.000000000000000082e-05
9.530828626139594917e+02 1.778279410038922901e-05
1.013555167359116922e+03 3.162277660168379530e-05
1.080410388693386949e+03 5.623413251903490700e-05
1.169450851700541079e+03 1.000000000000000048e-04
1.292684300074034354e+03 1.778279410038922698e-04
1.438587799016864210e+03 3.162277660168379394e-04
1.588261241334391343e+03 5.623413251903490971e-04
1.697759809924692945e+03 1.000000000000000021e-03
1.759144730072328002e+03 1.778279410038922752e-03
1.812700755699325555e+03 3.162277660168379394e-03
1.868431080796785182e+03 5.623413251903490971e-03
1.923916998131830724e+03 1.000000000000000021e-02
1.984049112208944962e+03 1.778279410038922925e-02
2.055205594157956966e+03 3.162277660168379134e-02
2.138465422620352456e+03 5.623413251903491145e-02
2.249186172688863735e+03 1.000000000000000056e-01
2.411355936004424166e+03 1.778279410038922925e-01
2.600552732081703653e+03 3.162277660168379412e-01
2.789611220985977525e+03 5.623413251903490728e-01
2.981642935109536666e+03 1.000000000000000000e+00
3.179524037539792971e+03 1.778279410038922759e+00
3.385463962617806828e+03 3.162277660168379523e+00
3.602866188941452037e+03 5.623413251903491172e+00
3.836406112892314468e+03 1.000000000000000000e+01
4.091516611634133369e+03 1.778279410038922848e+01
4.376201181847723092e+03 3.162277660168379256e+01
4.696774167406822926e+03 5.623413251903490817e+01
5.062282047343154773e+03 1.000000000000000000e+02
5.476836520831316193e+03 1.778279410038922776e+02
5.970038866124922606e+03 3.162277660168379612e+02
