# Temperature (K), Pressure (bars)
9.891144749153680777e+02 3.162277660168379394e-04
1.034469407945510739e+03 5.623413251903490971e-04
1.079824341670208014e+03 1.000000000000000021e-03
1.124669475424837174e+03 1.778279410038922752e-03
1.169749534270075173e+03 3.162277660168379394e-03
1.217331539752207618e+03 5.623413251903490971e-03
1.267701650062701674e+03 1.000000000000000021e-02
1.321559920476665638e+03 1.778279410038922925e-02
1.381502701233391690e+03 3.162277660168379134e-02
1.457506446792135648e+03 5.623413251903491145e-02
1.573729859009858274e+03 1.000000000000000056e-01
1.736216734325284733e+03 1.778279410038922925e-01
1.941064182047831764e+03 3.162277660168379412e-01
2.187567424392243993e+03 5.623413251903490728e-01
2.443304633711094084e+03 1.000000000000000000e+00
2.684991327565459869e+03 1.778279410038922759e+00
2.918669326480588097e+03 3.162277660168379523e+00
3.150585074442660698e+03 5.623413251903491172e+00
3.386943193975734630e+03 1.000000000000000000e+01
3.633925466159520511e+03 1.778279410038922848e+01
3.899497579740188485e+03 3.162277660168379256e+01
4.189185007763101567e+03 5.623413251903490817e+01
4.509813494663674646e+03 1.000000000000000000e+02
4.864564861467158153e+03 1.778279410038922776e+02
5.272643653906990039e+03 3.162277660168379612e+02
