# Temperature (K), Pressure (bars)
9.842450164888441577e+02 1.000000000000000082e-05
1.031889751350342067e+03 1.778279410038922901e-05
1.079534487810989276e+03 3.162277660168379530e-05
1.127694153744211008e+03 5.623413251903490700e-05
1.177002251781610767e+03 1.000000000000000048e-04
1.229196770213680338e+03 1.778279410038922698e-04
1.284313976027980061e+03 3.162277660168379394e-04
1.342552381376010544e+03 5.623413251903490971e-04
1.406133844138958466e+03 1.000000000000000021e-03
1.478400768184242224e+03 1.778279410038922752e-03
1.566020045983012778e+03 3.162277660168379394e-03
1.675717895695826428e+03 5.623413251903490971e-03
1.819554279043479482e+03 1.000000000000000021e-02
2.003626657640943222e+03 1.778279410038922925e-02
2.203172124779481237e+03 3.162277660168379134e-02
2.393636457605334726e+03 5.623413251903491145e-02
2.574309491055239505e+03 1.000000000000000056e-01
2.750723273858448010e+03 1.778279410038922925e-01
2.927207154009678561e+03 3.162277660168379412e-01
3.106807479431566207e+03 5.623413251903490728e-01
3.292221076080877083e+03 1.000000000000000000e+00
3.486918621222897855e+03 1.778279410038922759e+00
3.695236628527977700e+03 3.162277660168379523e+00
3.921938128649390364e+03 5.623413251903491172e+00
4.172322784671649970e+03 1.000000000000000000e+01
4.452759504572128208e+03 1.778279410038922848e+01
4.771696076779825489e+03 3.162277660168379256e+01
5.144252238911094537e+03 5.623413251903490817e+01
5.581823052697436651e+03 1.000000000000000000e+02
6.105735233394072566e+03 1.778279410038922776e+02
6.746501249046621524e+03 3.162277660168379612e+02
