# Temperature (K), Pressure (bars)
1.106362815653558528e+03 5.623413251903491208e-06
1.165961969305139519e+03 1.000000000000000082e-05
1.225561613268476776e+03 1.778279410038922901e-05
1.279332528956486613e+03 3.162277660168379530e-05
1.330408872177742069e+03 5.623413251903490700e-05
1.377656439401331681e+03 1.000000000000000048e-04
1.431372373838369185e+03 1.778279410038922698e-04
1.507513602150397901e+03 3.162277660168379394e-04
1.584784218474244881e+03 5.623413251903490971e-04
1.647012592811632203e+03 1.000000000000000021e-03
1.704464071657710974e+03 1.778279410038922752e-03
1.763091343730957533e+03 3.162277660168379394e-03
1.827333806067810656e+03 5.623413251903490971e-03
1.896264791447552852e+03 1.000000000000000021e-02
1.972992489250832932e+03 1.778279410038922925e-02
2.060175044567976329e+03 3.162277660168379134e-02
2.172789299570508774e+03 5.623413251903491145e-02
2.333316579290676600e+03 1.000000000000000056e-01
2.517582411289055017e+03 1.778279410038922925e-01
2.699469474470276509e+03 3.162277660168379412e-01
2.882873839020727246e+03 5.623413251903490728e-01
3.071496438559529452e+03 1.000000000000000000e+00
3.267331028466137468e+03 1.778279410038922759e+00
3.472615530819628930e+03 3.162277660168379523e+00
3.691171017537320040e+03 5.623413251903491172e+00
3.927872545200727473e+03 1.000000000000000000e+01
4.188155330403853441e+03 1.778279410038922848e+01
4.478390916610626846e+03 3.162277660168379256e+01
4.806919169294584208e+03 5.623413251903490817e+01
5.188990271872886296e+03 1.000000000000000000e+02
5.634450353137004640e+03 1.778279410038922776e+02
6.162978215052515225e+03 3.162277660168379612e+02
