# Temperature (K), Pressure (bars)
1.526986694694222479e+03 1.778279410038922901e-06
1.542373982481292160e+03 3.162277660168379191e-06
1.560822835808067339e+03 5.623413251903491208e-06
1.584788206138412079e+03 1.000000000000000082e-05
1.616145181703324624e+03 1.778279410038922901e-05
1.654755113436000556e+03 3.162277660168379530e-05
1.700104893187060043e+03 5.623413251903490700e-05
1.751902777023924045e+03 1.000000000000000048e-04
1.809862255043908817e+03 1.778279410038922698e-04
1.872251997331287839e+03 3.162277660168379394e-04
1.938592429900544175e+03 5.623413251903490971e-04
2.009838595498194991e+03 1.000000000000000021e-03
2.088852561804305424e+03 1.778279410038922752e-03
2.185519427830786299e+03 3.162277660168379394e-03
2.302978492829526658e+03 5.623413251903490971e-03
2.430575157651238442e+03 1.000000000000000021e-02
2.562547076415494757e+03 1.778279410038922925e-02
2.700774131495047186e+03 3.162277660168379134e-02
2.846927221006927539e+03 5.623413251903491145e-02
3.002918459661033012e+03 1.000000000000000056e-01
3.170991059533593216e+03 1.778279410038922925e-01
3.353212070447837505e+03 3.162277660168379412e-01
3.551036709533592330e+03 5.623413251903490728e-01
3.766512500233728588e+03 1.000000000000000000e+00
4.004199486594169684e+03 1.778279410038922759e+00
4.271848619946395047e+03 3.162277660168379523e+00
4.580757853134068682e+03 5.623413251903491172e+00
4.943745702193182296e+03 1.000000000000000000e+01
5.392292248192575244e+03 1.778279410038922848e+01
5.972707042336542145e+03 3.162277660168379256e+01
6.770774593814586297e+03 5.623413251903490817e+01
7.928488531763809988e+03 1.000000000000000000e+02
9.560852363109352154e+03 1.778279410038922776e+02
1.158582947071361559e+04 3.162277660168379612e+02
