# Temperature (K), Pressure (bars)
2.374097237382191906e+03 9.999999999999999547e-07
2.387727721877898603e+03 1.778279410038922901e-06
2.401358206373604389e+03 3.162277660168379191e-06
2.427430571705468992e+03 5.623413251903491208e-06
2.459223956524931509e+03 1.000000000000000082e-05
2.490768220158776785e+03 1.778279410038922901e-05
2.525464322342298601e+03 3.162277660168379530e-05
2.563558658397270392e+03 5.623413251903490700e-05
2.603691242790453089e+03 1.000000000000000048e-04
2.644311550965941478e+03 1.778279410038922698e-04
2.680816043731000264e+03 3.162277660168379394e-04
2.708245668518088223e+03 5.623413251903490971e-04
2.729397399780390060e+03 1.000000000000000021e-03
2.757353913614666453e+03 1.778279410038922752e-03
2.804319547223440168e+03 3.162277660168379394e-03
2.867923183003754730e+03 5.623413251903490971e-03
2.940292867568241945e+03 1.000000000000000021e-02
3.008929163468545084e+03 1.778279410038922925e-02
3.092786085773478135e+03 3.162277660168379134e-02
3.233434159994101719e+03 5.623413251903491145e-02
3.417794291938172137e+03 1.000000000000000056e-01
3.617500175639090685e+03 1.778279410038922925e-01
3.858244893567738927e+03 3.162277660168379412e-01
4.130333849917229600e+03 5.623413251903490728e-01
4.479273675177576479e+03 1.000000000000000000e+00
4.972836052865707643e+03 1.778279410038922759e+00
5.764891193506889067e+03 3.162277660168379523e+00
7.020757813626643838e+03 5.623413251903491172e+00
8.655749239353235680e+03 1.000000000000000000e+01
1.000000000000000000e+04 1.778279410038922848e+01
1.000000000000000000e+04 3.162277660168379256e+01
1.000000000000000000e+04 5.623413251903490817e+01
1.000000000000000000e+04 1.000000000000000000e+02
1.000000000000000000e+04 1.778279410038922776e+02
1.000000000000000000e+04 3.162277660168379612e+02
