# Temperature (K), Pressure (bars)
1.065567641359024719e+03 3.162277660168379394e-04
1.115735758977556770e+03 5.623413251903490971e-04
1.165903876851215955e+03 1.000000000000000021e-03
1.214756562368691448e+03 1.778279410038922752e-03
1.264072683123005618e+03 3.162277660168379394e-03
1.316612909951905522e+03 5.623413251903490971e-03
1.375346828962684640e+03 1.000000000000000021e-02
1.443688587631070959e+03 1.778279410038922925e-02
1.528985162040076375e+03 3.162277660168379134e-02
1.636828632878574808e+03 5.623413251903491145e-02
1.772164394376542077e+03 1.000000000000000056e-01
1.930044949904922760e+03 1.778279410038922925e-01
2.120237779286293971e+03 3.162277660168379412e-01
2.359327121695743699e+03 5.623413251903490728e-01
2.604252513304875265e+03 1.000000000000000000e+00
2.828523223088102895e+03 1.778279410038922759e+00
3.049175327453068348e+03 3.162277660168379523e+00
3.273025843935447483e+03 5.623413251903491172e+00
3.505297966083587198e+03 1.000000000000000000e+01
3.751477497452696753e+03 1.778279410038922848e+01
4.019207964386345338e+03 3.162277660168379256e+01
4.313899683946716323e+03 5.623413251903490817e+01
4.642634577608879226e+03 1.000000000000000000e+02
5.008911150415831798e+03 1.778279410038922776e+02
5.433234710787852237e+03 3.162277660168379612e+02
