# Temperature (K), Pressure (bars)
1.665970689624538863e+03 5.623413251903490700e-05
1.676174992036726280e+03 1.000000000000000048e-04
1.686379296198929751e+03 1.778279410038922698e-04
1.702199993863084273e+03 3.162277660168379394e-04
1.724452508381404414e+03 5.623413251903490971e-04
1.751701565369639184e+03 1.000000000000000021e-03
1.784718464509943487e+03 1.778279410038922752e-03
1.824979140854429943e+03 3.162277660168379394e-03
1.871028425669386252e+03 5.623413251903490971e-03
1.921409696983107779e+03 1.000000000000000021e-02
1.975536722726307971e+03 1.778279410038922925e-02
2.033445185627665978e+03 3.162277660168379134e-02
2.097274888249396554e+03 5.623413251903491145e-02
2.168346109903613979e+03 1.000000000000000056e-01
2.254337151967184127e+03 1.778279410038922925e-01
2.363110946648605477e+03 3.162277660168379412e-01
2.515562929494047239e+03 5.623413251903490728e-01
2.722291141133996462e+03 1.000000000000000000e+00
2.940770641514773160e+03 1.778279410038922759e+00
3.151514151050246255e+03 3.162277660168379523e+00
3.370182543230377632e+03 5.623413251903491172e+00
3.601637323412817295e+03 1.000000000000000000e+01
3.849866097134603933e+03 1.778279410038922848e+01
4.121173086265020174e+03 3.162277660168379256e+01
4.421816520125602437e+03 5.623413251903490817e+01
4.759290706764528295e+03 1.000000000000000000e+02
5.137427311381615255e+03 1.778279410038922776e+02
5.578605720270573329e+03 3.162277660168379612e+02
