# Temperature (K), Pressure (bars)
4.871515974341461515e+03 9.999999999999999547e-07
5.899414791522856831e+03 1.778279410038922901e-06
7.137519395027454266e+03 3.162277660168379191e-06
8.547886857515608426e+03 5.623413251903491208e-06
1.004454815769348352e+04 1.000000000000000082e-05
1.151237748693533649e+04 1.778279410038922901e-05
1.285203574039043997e+04 3.162277660168379530e-05
1.402080561607591881e+04 5.623413251903490700e-05
1.503113077339740084e+04 1.000000000000000048e-04
1.592538653783269729e+04 1.778279410038922698e-04
1.674958778137827176e+04 3.162277660168379394e-04
1.754240746213519014e+04 5.623413251903490971e-04
1.833376373514751322e+04 1.000000000000000021e-03
1.914806567346590236e+04 1.778279410038922752e-03
2.000692260009001257e+04 3.162277660168379394e-03
2.093267706106279365e+04 5.623413251903490971e-03
2.195024136952685512e+04 1.000000000000000021e-02
2.309153059601009591e+04 1.778279410038922925e-02
2.439639038489016093e+04 3.162277660168379134e-02
2.591781877311425706e+04 5.623413251903491145e-02
2.772470639120299529e+04 1.000000000000000056e-01
2.991054042090405346e+04 1.778279410038922925e-01
3.259289379205045771e+04 3.162277660168379412e-01
3.592830267498434841e+04 5.623413251903490728e-01
4.011305881722591585e+04 1.000000000000000000e+00
4.540165238310733548e+04 1.778279410038922759e+00
5.210921368323698698e+04 3.162277660168379523e+00
6.062907639363132330e+04 5.623413251903491172e+00
7.145075283445278183e+04 1.000000000000000000e+01
8.517156832806563762e+04 1.778279410038922848e+01
1.024896617035881209e+05 3.162277660168379256e+01
1.242065574329159281e+05 5.623413251903490817e+01
1.511426288354115386e+05 1.000000000000000000e+02
1.840260183943134325e+05 1.778279410038922776e+02
2.232614079627064930e+05 3.162277660168379612e+02
