# Temperature (K), Pressure (bars)
8.520644095019945325e+02 9.999999999999999547e-07
8.818821104313227579e+02 1.778279410038922901e-06
9.116998113729723627e+02 3.162277660168379191e-06
9.435653073715030814e+02 5.623413251903491208e-06
9.788515116687556201e+02 1.000000000000000082e-05
1.018508112357631262e+03 1.778279410038922901e-05
1.061739027044476416e+03 3.162277660168379530e-05
1.107959292452539785e+03 5.623413251903490700e-05
1.157325981485082366e+03 1.000000000000000048e-04
1.210126765565086316e+03 1.778279410038922698e-04
1.266614110793145983e+03 3.162277660168379394e-04
1.328542494882939536e+03 5.623413251903490971e-04
1.397808245544772035e+03 1.000000000000000021e-03
1.478652246286783793e+03 1.778279410038922752e-03
1.575443906503295921e+03 3.162277660168379394e-03
1.703853104875222925e+03 5.623413251903490971e-03
1.885407932299367076e+03 1.000000000000000021e-02
2.098654978528824813e+03 1.778279410038922925e-02
2.303983039549204932e+03 3.162277660168379134e-02
2.492676382378959261e+03 5.623413251903491145e-02
2.671422733460723066e+03 1.000000000000000056e-01
2.846015356124898062e+03 1.778279410038922925e-01
3.020602222965902001e+03 3.162277660168379412e-01
3.198532765260794349e+03 5.623413251903490728e-01
3.383447727136864160e+03 1.000000000000000000e+00
3.579623118486579187e+03 1.778279410038922759e+00
3.791667783558648807e+03 3.162277660168379523e+00
4.024543768884979727e+03 5.623413251903491172e+00
4.283978512496812982e+03 1.000000000000000000e+01
4.577158555668193912e+03 1.778279410038922848e+01
4.913943892448041879e+03 3.162277660168379256e+01
5.311481999456098492e+03 5.623413251903490817e+01
5.784904141410121156e+03 1.000000000000000000e+02
6.362119416619662843e+03 1.778279410038922776e+02
7.084877451381391438e+03 3.162277660168379612e+02
