# Temperature (K), Pressure (bars)
1.829107683645974248e+03 1.778279410038922901e-06
1.841899666519256698e+03 3.162277660168379191e-06
1.855068939136745939e+03 5.623413251903491208e-06
1.871221884878749734e+03 1.000000000000000082e-05
1.893056148634612555e+03 1.778279410038922901e-05
1.922016267745766982e+03 3.162277660168379530e-05
1.957503157645895499e+03 5.623413251903490700e-05
1.999788739087769045e+03 1.000000000000000048e-04
2.048896743706933194e+03 1.778279410038922698e-04
2.102991859443485737e+03 3.162277660168379394e-04
2.161316764853868335e+03 5.623413251903490971e-04
2.223869564486252784e+03 1.000000000000000021e-03
2.293681711131310749e+03 1.778279410038922752e-03
2.378581116277891851e+03 3.162277660168379394e-03
2.480150351635763400e+03 5.623413251903490971e-03
2.592602463207729670e+03 1.000000000000000021e-02
2.713629936423638355e+03 1.778279410038922925e-02
2.844419679350971819e+03 3.162277660168379134e-02
2.986398206815690173e+03 5.623413251903491145e-02
3.141557448206966001e+03 1.000000000000000056e-01
3.312724871071101006e+03 1.778279410038922925e-01
3.503581796850854516e+03 3.162277660168379412e-01
3.718221862206165497e+03 5.623413251903490728e-01
3.961435594579802455e+03 1.000000000000000000e+00
4.241666724810174856e+03 1.778279410038922759e+00
4.554703192537930590e+03 3.162277660168379523e+00
4.941818590291324654e+03 5.623413251903491172e+00
5.447392508867787910e+03 1.000000000000000000e+01
6.157292417340167049e+03 1.778279410038922848e+01
7.215902776853484283e+03 3.162277660168379256e+01
8.758632294447776076e+03 5.623413251903490817e+01
1.069514892252480604e+04 1.000000000000000000e+02
1.301998167895245206e+04 1.778279410038922776e+02
1.579341252229586280e+04 3.162277660168379612e+02
