# Temperature (K), Pressure (bars)
7.188988841626292015e+02 9.999999999999999547e-07
7.408303657685194139e+02 1.778279410038922901e-06
7.627618473861218718e+02 3.162277660168379191e-06
7.877586244999611154e+02 5.623413251903491208e-06
8.167896955545687661e+02 1.000000000000000082e-05
8.490034373363555460e+02 1.778279410038922901e-05
8.844134919738363578e+02 3.162277660168379530e-05
9.230889655578845350e+02 5.623413251903490700e-05
9.645733622402181027e+02 1.000000000000000048e-04
1.008947358522480499e+03 1.778279410038922698e-04
1.056237725356395003e+03 3.162277660168379394e-04
1.107153979214465380e+03 5.623413251903490971e-04
1.163309068941740861e+03 1.000000000000000021e-03
1.226532406855142199e+03 1.778279410038922752e-03
1.299773541049149571e+03 3.162277660168379394e-03
1.385910391837256611e+03 5.623413251903490971e-03
1.493859107943155550e+03 1.000000000000000021e-02
1.646892768194420114e+03 1.778279410038922925e-02
1.856717112177950639e+03 3.162277660168379134e-02
2.095872386865330554e+03 5.623413251903491145e-02
2.326081242453971754e+03 1.000000000000000056e-01
2.534904053987247153e+03 1.778279410038922925e-01
2.728724296786439481e+03 3.162277660168379412e-01
2.915539817691114422e+03 5.623413251903490728e-01
3.101754374709570584e+03 1.000000000000000000e+00
3.292830261973186680e+03 1.778279410038922759e+00
3.493737334932832255e+03 3.162277660168379523e+00
3.709088300029195125e+03 5.623413251903491172e+00
3.943552025985463843e+03 1.000000000000000000e+01
4.202289888328612506e+03 1.778279410038922848e+01
4.491503049821918466e+03 3.162277660168379256e+01
4.819415846103497643e+03 5.623413251903490817e+01
5.201432698661707036e+03 1.000000000000000000e+02
5.646929210457371482e+03 1.778279410038922776e+02
6.175075965430681208e+03 3.162277660168379612e+02
