# Temperature (K), Pressure (bars)
9.111646953332510748e+02 1.778279410038922901e-06
9.675648331551992669e+02 3.162277660168379191e-06
1.023986184024958902e+03 5.623413251903491208e-06
1.093091466949485493e+03 1.000000000000000082e-05
1.185523642162478609e+03 1.778279410038922901e-05
1.319822961067794040e+03 3.162277660168379530e-05
1.485770211242385813e+03 5.623413251903490700e-05
1.632609430309269555e+03 1.000000000000000048e-04
1.728656356635816337e+03 1.778279410038922698e-04
1.788652072248318291e+03 3.162277660168379394e-04
1.837799138340447371e+03 5.623413251903490971e-04
1.884288466342996799e+03 1.000000000000000021e-03
1.929741030064547886e+03 1.778279410038922752e-03
1.977357164618829302e+03 3.162277660168379394e-03
2.029665144391609829e+03 5.623413251903490971e-03
2.089587506074708017e+03 1.000000000000000021e-02
2.160619071786461063e+03 1.778279410038922925e-02
2.248186518989852630e+03 3.162277660168379134e-02
2.368319515124824648e+03 5.623413251903491145e-02
2.524062858823607712e+03 1.000000000000000056e-01
2.690967215249043875e+03 1.778279410038922925e-01
2.859189733025633359e+03 3.162277660168379412e-01
3.035313661858755950e+03 5.623413251903490728e-01
3.221089993197509557e+03 1.000000000000000000e+00
3.417347763887309156e+03 1.778279410038922759e+00
3.626147252884690715e+03 3.162277660168379523e+00
3.851388745102989560e+03 5.623413251903491172e+00
4.098207023432050846e+03 1.000000000000000000e+01
4.372705180267522337e+03 1.778279410038922848e+01
4.682371101153747077e+03 3.162277660168379256e+01
5.037253304575144284e+03 5.623413251903490817e+01
5.455037412893323562e+03 1.000000000000000000e+02
5.949672053635776138e+03 1.778279410038922776e+02
6.547364156232150890e+03 3.162277660168379612e+02
