# Temperature (K), Pressure (bars)
2.233761232298494178e+03 3.162277660168379191e-06
2.255530444329589955e+03 5.623413251903491208e-06
2.277430172825529553e+03 1.000000000000000082e-05
2.298943762000584684e+03 1.778279410038922901e-05
2.330934773941706226e+03 3.162277660168379530e-05
2.370446059803829030e+03 5.623413251903490700e-05
2.417688410438411665e+03 1.000000000000000048e-04
2.475228834753870615e+03 1.778279410038922698e-04
2.541624133700991024e+03 3.162277660168379394e-04
2.617461639935257608e+03 5.623413251903490971e-04
2.701665847981956176e+03 1.000000000000000021e-03
2.792706347794547582e+03 1.778279410038922752e-03
2.887114733809524296e+03 3.162277660168379394e-03
2.978453405090535398e+03 5.623413251903490971e-03
3.061826343432011527e+03 1.000000000000000021e-02
3.132289308716836786e+03 1.778279410038922925e-02
3.196437033820409397e+03 3.162277660168379134e-02
3.245222512073213693e+03 5.623413251903491145e-02
3.303603242901344856e+03 1.000000000000000056e-01
3.442658725269178831e+03 1.778279410038922925e-01
3.645360746771147660e+03 3.162277660168379412e-01
3.881420385342510599e+03 5.623413251903490728e-01
4.176493451447460757e+03 1.000000000000000000e+00
4.499458916757251245e+03 1.778279410038922759e+00
4.918104525163903418e+03 3.162277660168379523e+00
5.512037882814560362e+03 5.623413251903491172e+00
6.442071211287252481e+03 1.000000000000000000e+01
7.845144850355298331e+03 1.778279410038922848e+01
9.618097089966391650e+03 3.162277660168379256e+01
1.169000657663616767e+04 5.623413251903490817e+01
1.422619739731726986e+04 1.000000000000000000e+02
1.732125916365627199e+04 1.778279410038922776e+02
2.101425849676040161e+04 3.162277660168379612e+02
