# Temperature (K), Pressure (bars)
1.286815763742567924e+03 3.162277660168379191e-06
1.320501125313294096e+03 5.623413251903491208e-06
1.354663883905742296e+03 1.000000000000000082e-05
1.397224930686709740e+03 1.778279410038922901e-05
1.466042878034225851e+03 3.162277660168379530e-05
1.540424462083590925e+03 5.623413251903490700e-05
1.596532523523771943e+03 1.000000000000000048e-04
1.643430971377286824e+03 1.778279410038922698e-04
1.691189645888385485e+03 3.162277660168379394e-04
1.739997198012588569e+03 5.623413251903490971e-04
1.790373431679656278e+03 1.000000000000000021e-03
1.844759294280745962e+03 1.778279410038922752e-03
1.903103757795493493e+03 3.162277660168379394e-03
1.964650147871797117e+03 5.623413251903490971e-03
2.033417974920756023e+03 1.000000000000000021e-02
2.110967584964523667e+03 1.778279410038922925e-02
2.206718728243136866e+03 3.162277660168379134e-02
2.339905338610337367e+03 5.623413251903491145e-02
2.501271298445415141e+03 1.000000000000000056e-01
2.668255445862586384e+03 1.778279410038922925e-01
2.837968504324748210e+03 3.162277660168379412e-01
3.014582324331879136e+03 5.623413251903490728e-01
3.200169796226760809e+03 1.000000000000000000e+00
3.395835221111973169e+03 1.778279410038922759e+00
3.603654589508148092e+03 3.162277660168379523e+00
3.827499472640190106e+03 5.623413251903491172e+00
4.072433472709864873e+03 1.000000000000000000e+01
4.344419754631962860e+03 1.778279410038922848e+01
4.650780955938801526e+03 3.162277660168379256e+01
5.001339925283036791e+03 5.623413251903490817e+01
5.413375264029655227e+03 1.000000000000000000e+02
5.900954349661253218e+03 1.778279410038922776e+02
6.490049166822589541e+03 3.162277660168379612e+02
