# Temperature (K), Pressure (bars)
1.452422352728030319e+03 3.162277660168379191e-06
1.480937037181212418e+03 5.623413251903491208e-06
1.509451727255167498e+03 1.000000000000000082e-05
1.546424196248180806e+03 1.778279410038922901e-05
1.590744705966107404e+03 3.162277660168379530e-05
1.636234828515138588e+03 5.623413251903490700e-05
1.687238451551906564e+03 1.000000000000000048e-04
1.753134128615451573e+03 1.778279410038922698e-04
1.812110609825059328e+03 3.162277660168379394e-04
1.852459202815842218e+03 5.623413251903490971e-04
1.888558955719318192e+03 1.000000000000000021e-03
1.923486171506434403e+03 1.778279410038922752e-03
1.955542025751016126e+03 3.162277660168379394e-03
1.986777755398959243e+03 5.623413251903490971e-03
2.019161943252385754e+03 1.000000000000000021e-02
2.055628495890056456e+03 1.778279410038922925e-02
2.097888530876413370e+03 3.162277660168379134e-02
2.154402004058698822e+03 5.623413251903491145e-02
2.221112867462531085e+03 1.000000000000000056e-01
2.330040253536092223e+03 1.778279410038922925e-01
2.523104508978193735e+03 3.162277660168379412e-01
2.737508762784493229e+03 5.623413251903490728e-01
2.933411841146129518e+03 1.000000000000000000e+00
3.133163115433386338e+03 1.778279410038922759e+00
3.340597293774262198e+03 3.162277660168379523e+00
3.558556362459822139e+03 5.623413251903491172e+00
3.791452666757261795e+03 1.000000000000000000e+01
4.044724021402655126e+03 1.778279410038922848e+01
4.326271231185794022e+03 3.162277660168379256e+01
4.642390993817005437e+03 5.623413251903490817e+01
5.001786887695812766e+03 1.000000000000000000e+02
5.409091696232819231e+03 1.778279410038922776e+02
5.891504366818797280e+03 3.162277660168379612e+02
