# Temperature (K), Pressure (bars)
2.157765661141612327e+03 5.623413251903491208e-06
2.163690765701007876e+03 1.000000000000000082e-05
2.169615873075587842e+03 1.778279410038922901e-05
2.179777237053680437e+03 3.162277660168379530e-05
2.196570874047143207e+03 5.623413251903490700e-05
2.222792782846936007e+03 1.000000000000000048e-04
2.260966452725109320e+03 1.778279410038922698e-04
2.312853824550362333e+03 3.162277660168379394e-04
2.378314038033468023e+03 5.623413251903490971e-04
2.454159338458486673e+03 1.000000000000000021e-03
2.535594690268504564e+03 1.778279410038922752e-03
2.619685942820261971e+03 3.162277660168379394e-03
2.703249833422740721e+03 5.623413251903490971e-03
2.780777744925953357e+03 1.000000000000000021e-02
2.844783648690885911e+03 1.778279410038922925e-02
2.896225595350324511e+03 3.162277660168379134e-02
2.938457733588355040e+03 5.623413251903491145e-02
3.008691402264722456e+03 1.000000000000000056e-01
3.148288385753081911e+03 1.778279410038922925e-01
3.320793769613754648e+03 3.162277660168379412e-01
3.500954609596196860e+03 5.623413251903490728e-01
3.704521293362614415e+03 1.000000000000000000e+00
3.935442643028197836e+03 1.778279410038922759e+00
4.197086192913983723e+03 3.162277660168379523e+00
4.496180647087961916e+03 5.623413251903491172e+00
4.837037183757392086e+03 1.000000000000000000e+01
5.249665956922150144e+03 1.778279410038922848e+01
5.768178835049949157e+03 3.162277660168379256e+01
6.453787206907152722e+03 5.623413251903490817e+01
7.414209972377034319e+03 1.000000000000000000e+02
8.791812416182126981e+03 1.778279410038922776e+02
1.000000000000000000e+04 3.162277660168379612e+02
