# Temperature (K), Pressure (bars)
2.160554698748428564e+03 9.999999999999999547e-07
2.170125977084282113e+03 1.778279410038922901e-06
2.179697255420135207e+03 3.162277660168379191e-06
2.199799323906586324e+03 5.623413251903491208e-06
2.225813099367848736e+03 1.000000000000000082e-05
2.253408784348303925e+03 1.778279410038922901e-05
2.284125664034322654e+03 3.162277660168379530e-05
2.321061131563421441e+03 5.623413251903490700e-05
2.365169250045406898e+03 1.000000000000000048e-04
2.416441141245225481e+03 1.778279410038922698e-04
2.474661702205808069e+03 3.162277660168379394e-04
2.536822187381906588e+03 5.623413251903490971e-04
2.600455159450790234e+03 1.000000000000000021e-03
2.664640797065557763e+03 1.778279410038922752e-03
2.726851558050886524e+03 3.162277660168379394e-03
2.785148421711490755e+03 5.623413251903490971e-03
2.838194273857940971e+03 1.000000000000000021e-02
2.890859554227187800e+03 1.778279410038922925e-02
2.938594723498402800e+03 3.162277660168379134e-02
2.995788196795036129e+03 5.623413251903491145e-02
3.105014187304596362e+03 1.000000000000000056e-01
3.257629589634979311e+03 1.778279410038922925e-01
3.430576513293778589e+03 3.162277660168379412e-01
3.628886426467175625e+03 5.623413251903490728e-01
3.856094207593156625e+03 1.000000000000000000e+00
4.115996598256180732e+03 1.778279410038922759e+00
4.416633473743197101e+03 3.162277660168379523e+00
4.757062817315069879e+03 5.623413251903491172e+00
5.179172726743768180e+03 1.000000000000000000e+01
5.731408489982870378e+03 1.778279410038922848e+01
6.508392326177342511e+03 3.162277660168379256e+01
7.664919729889725204e+03 5.623413251903490817e+01
9.298500204941443371e+03 1.000000000000000000e+02
1.000000000000000000e+04 1.778279410038922776e+02
1.000000000000000000e+04 3.162277660168379612e+02
