# Temperature (K), Pressure (bars)
2.084173718046349222e+03 9.999999999999999547e-07
2.118953200931508491e+03 1.778279410038922901e-06
2.153732683816667304e+03 3.162277660168379191e-06
2.189772230895840039e+03 5.623413251903491208e-06
2.224612489305030067e+03 1.000000000000000082e-05
2.255342192471198359e+03 1.778279410038922901e-05
2.281510504150035558e+03 3.162277660168379530e-05
2.305066573092038198e+03 5.623413251903490700e-05
2.329521581132450137e+03 1.000000000000000048e-04
2.358330229295477693e+03 1.778279410038922698e-04
2.393973687577011788e+03 3.162277660168379394e-04
2.437692917167090854e+03 5.623413251903490971e-04
2.490721392510132318e+03 1.000000000000000021e-03
2.554470572131554036e+03 1.778279410038922752e-03
2.633137165466996521e+03 3.162277660168379394e-03
2.731831909962735153e+03 5.623413251903490971e-03
2.848365366999359139e+03 1.000000000000000021e-02
2.979606349662952653e+03 1.778279410038922925e-02
3.127859694119732012e+03 3.162277660168379134e-02
3.299239146993666054e+03 5.623413251903491145e-02
3.489627155353427952e+03 1.000000000000000056e-01
3.713681836365691652e+03 1.778279410038922925e-01
3.970174489411868308e+03 3.162277660168379412e-01
4.294325829420525224e+03 5.623413251903490728e-01
4.751622406908240009e+03 1.000000000000000000e+00
5.463066015248515214e+03 1.778279410038922759e+00
6.529142812085246987e+03 3.162277660168379523e+00
8.048062185975602915e+03 5.623413251903491172e+00
9.760525209812136382e+03 1.000000000000000000e+01
1.000000000000000000e+04 1.778279410038922848e+01
1.000000000000000000e+04 3.162277660168379256e+01
1.000000000000000000e+04 5.623413251903490817e+01
1.000000000000000000e+04 1.000000000000000000e+02
1.000000000000000000e+04 1.778279410038922776e+02
1.000000000000000000e+04 3.162277660168379612e+02
