# Temperature (K), Pressure (bars)
2.131757053406224713e+03 9.999999999999999547e-07
2.169544938806174741e+03 1.778279410038922901e-06
2.207332824206125679e+03 3.162277660168379191e-06
2.249767716131407724e+03 5.623413251903491208e-06
2.295808783909570593e+03 1.000000000000000082e-05
2.343554670702213116e+03 1.778279410038922901e-05
2.391392678742614862e+03 3.162277660168379530e-05
2.437419028090469510e+03 5.623413251903490700e-05
2.480487700379185753e+03 1.000000000000000048e-04
2.519957788978699682e+03 1.778279410038922698e-04
2.556391810442760743e+03 3.162277660168379394e-04
2.592025972809221003e+03 5.623413251903490971e-04
2.629834481400354889e+03 1.000000000000000021e-03
2.673262264152610442e+03 1.778279410038922752e-03
2.725214400886961812e+03 3.162277660168379394e-03
2.788983865490612970e+03 5.623413251903490971e-03
2.863915672004913631e+03 1.000000000000000021e-02
2.952714284940245761e+03 1.778279410038922925e-02
3.069442260467738379e+03 3.162277660168379134e-02
3.219746298446541914e+03 5.623413251903491145e-02
3.400597751498226444e+03 1.000000000000000056e-01
3.602148326986735356e+03 1.778279410038922925e-01
3.841877610545830066e+03 3.162277660168379412e-01
4.112498216334910467e+03 5.623413251903490728e-01
4.454847593240582682e+03 1.000000000000000000e+00
4.928174529378131410e+03 1.778279410038922759e+00
5.649014126808411675e+03 3.162277660168379523e+00
6.773056701360369516e+03 5.623413251903491172e+00
8.346240427703494788e+03 1.000000000000000000e+01
1.000000000000000000e+04 1.778279410038922848e+01
1.000000000000000000e+04 3.162277660168379256e+01
1.000000000000000000e+04 5.623413251903490817e+01
1.000000000000000000e+04 1.000000000000000000e+02
1.000000000000000000e+04 1.778279410038922776e+02
1.000000000000000000e+04 3.162277660168379612e+02
