# Temperature (K), Pressure (bars)
2.252727843579442833e+03 9.999999999999999547e-07
2.260963100768488857e+03 1.778279410038922901e-06
2.269198357957534881e+03 3.162277660168379191e-06
2.294919955753069189e+03 5.623413251903491208e-06
2.328204783019837123e+03 1.000000000000000082e-05
2.366412186598050539e+03 1.778279410038922901e-05
2.411640422253742145e+03 3.162277660168379530e-05
2.462129555779183192e+03 5.623413251903490700e-05
2.516998353136591504e+03 1.000000000000000048e-04
2.573987287770424246e+03 1.778279410038922698e-04
2.631667338816340362e+03 3.162277660168379394e-04
2.688456775580420526e+03 5.623413251903490971e-04
2.742063687897470118e+03 1.000000000000000021e-03
2.789967928812734499e+03 1.778279410038922752e-03
2.831618261716133020e+03 3.162277660168379394e-03
2.870406535492954845e+03 5.623413251903490971e-03
2.914425328685034856e+03 1.000000000000000021e-02
2.969188551401476161e+03 1.778279410038922925e-02
3.042293458422031108e+03 3.162277660168379134e-02
3.151818095740830813e+03 5.623413251903491145e-02
3.301626234282597579e+03 1.000000000000000056e-01
3.483306588695619666e+03 1.778279410038922925e-01
3.698444864265833075e+03 3.162277660168379412e-01
3.965566408322955340e+03 5.623413251903490728e-01
4.246903014861365591e+03 1.000000000000000000e+00
4.598968608110562855e+03 1.778279410038922759e+00
5.073072733134111331e+03 3.162277660168379523e+00
5.775144942258431001e+03 5.623413251903491172e+00
6.878248977637561438e+03 1.000000000000000000e+01
8.445343130846671556e+03 1.778279410038922848e+01
1.000000000000000000e+04 3.162277660168379256e+01
1.000000000000000000e+04 5.623413251903490817e+01
1.000000000000000000e+04 1.000000000000000000e+02
1.000000000000000000e+04 1.778279410038922776e+02
1.000000000000000000e+04 3.162277660168379612e+02
