# Temperature (K), Pressure (bars)
9.750978894562341566e+02 3.162277660168379394e-03
1.026000677271344330e+03 5.623413251903490971e-03
1.076903466628549722e+03 1.000000000000000021e-02
1.126385666254454463e+03 1.778279410038922925e-02
1.174830026685616076e+03 3.162277660168379134e-02
1.224045098711622131e+03 5.623413251903491145e-02
1.277226790613791081e+03 1.000000000000000056e-01
1.337748587132831744e+03 1.778279410038922925e-01
1.413008335879537981e+03 3.162277660168379412e-01
1.515033861346927097e+03 5.623413251903490728e-01
1.654612897882537254e+03 1.000000000000000000e+00
1.824709359909037630e+03 1.778279410038922759e+00
2.032628166003881461e+03 3.162277660168379523e+00
2.300404496804464998e+03 5.623413251903491172e+00
2.596732547981179778e+03 1.000000000000000000e+01
2.889086741209613592e+03 1.778279410038922848e+01
3.182478891497389213e+03 3.162277660168379256e+01
3.480138559365986112e+03 5.623413251903490817e+01
3.789806582651151530e+03 1.000000000000000000e+02
4.116969765566450405e+03 1.778279410038922776e+02
4.475639789008490879e+03 3.162277660168379612e+02
