# Temperature (K), Pressure (bars)
9.221434160238610502e+02 3.162277660168379394e-04
9.774740730604098644e+02 5.623413251903490971e-04
1.032804731565782959e+03 1.000000000000000021e-03
1.086300575985372234e+03 1.778279410038922752e-03
1.139167545288475822e+03 3.162277660168379394e-03
1.193279995691795875e+03 5.623413251903490971e-03
1.250698139401673870e+03 1.000000000000000021e-02
1.314809304433598072e+03 1.778279410038922925e-02
1.391519010322282156e+03 3.162277660168379134e-02
1.490507266378026998e+03 5.623413251903491145e-02
1.643754372112702185e+03 1.000000000000000056e-01
1.870460446875621301e+03 1.778279410038922925e-01
2.128742198201848623e+03 3.162277660168379412e-01
2.378416511955481383e+03 5.623413251903490728e-01
2.614097788159605443e+03 1.000000000000000000e+00
2.838816433345074984e+03 1.778279410038922759e+00
3.059019639580449621e+03 3.162277660168379523e+00
3.281316328499025531e+03 5.623413251903491172e+00
3.511975637892981922e+03 1.000000000000000000e+01
3.757021463181380113e+03 1.778279410038922848e+01
4.024543015914743137e+03 3.162277660168379256e+01
4.319237119660556345e+03 5.623413251903490817e+01
4.648119087663967548e+03 1.000000000000000000e+02
5.014755190986825255e+03 1.778279410038922776e+02
5.439697272910311767e+03 3.162277660168379612e+02
