# Temperature (K), Pressure (bars)
2.246658115375938451e+03 3.162277660168379191e-06
2.252687084055884498e+03 5.623413251903491208e-06
2.258716065593695475e+03 1.000000000000000082e-05
2.278251037409149376e+03 1.778279410038922901e-05
2.302689771131131238e+03 3.162277660168379530e-05
2.331066273349967560e+03 5.623413251903490700e-05
2.366062751261511949e+03 1.000000000000000048e-04
2.409248614677541354e+03 1.778279410038922698e-04
2.463402731114115340e+03 3.162277660168379394e-04
2.527332028403823642e+03 5.623413251903490971e-04
2.599717979332639970e+03 1.000000000000000021e-03
2.679102096867773071e+03 1.778279410038922752e-03
2.763235338947033597e+03 3.162277660168379394e-03
2.847772865757687669e+03 5.623413251903490971e-03
2.926663874190923707e+03 1.000000000000000021e-02
2.993854844922120719e+03 1.778279410038922925e-02
3.053571243131816573e+03 3.162277660168379134e-02
3.103225318963604877e+03 5.623413251903491145e-02
3.164278648509840878e+03 1.000000000000000056e-01
3.286874976843111654e+03 1.778279410038922925e-01
3.458188445655619944e+03 3.162277660168379412e-01
3.652177090319899889e+03 5.623413251903490728e-01
3.877339556479790645e+03 1.000000000000000000e+00
4.139936320214685111e+03 1.778279410038922759e+00
4.448883741092939999e+03 3.162277660168379523e+00
4.799371031844282697e+03 5.623413251903491172e+00
5.238960765279462976e+03 1.000000000000000000e+01
5.824713403775424013e+03 1.778279410038922848e+01
6.667645797627553293e+03 3.162277660168379256e+01
7.927970614369535724e+03 5.623413251903490817e+01
9.656568279953493402e+03 1.000000000000000000e+02
1.000000000000000000e+04 1.778279410038922776e+02
1.000000000000000000e+04 3.162277660168379612e+02
