# Temperature (K), Pressure (bars)
8.355558293217202390e+02 3.162277660168379394e-04
8.767876471831087883e+02 5.623413251903490971e-04
9.180194663301841729e+02 1.000000000000000021e-03
9.585751671121412301e+02 1.778279410038922752e-03
9.996030899162800551e+02 3.162277660168379394e-03
1.040959203706900098e+03 5.623413251903490971e-03
1.084025611329383082e+03 1.000000000000000021e-02
1.130163440438734142e+03 1.778279410038922925e-02
1.187303192652125745e+03 3.162277660168379134e-02
1.252327611625700683e+03 5.623413251903491145e-02
1.364001101653532032e+03 1.000000000000000056e-01
1.576123572642502495e+03 1.778279410038922925e-01
1.838050641459149119e+03 3.162277660168379412e-01
2.103913323237415625e+03 5.623413251903490728e-01
2.370138336798952878e+03 1.000000000000000000e+00
2.623247968099411992e+03 1.778279410038922759e+00
2.863835414841299098e+03 3.162277660168379523e+00
3.098586149569424379e+03 5.623413251903491172e+00
3.335570838691215158e+03 1.000000000000000000e+01
3.582149282404139740e+03 1.778279410038922848e+01
3.847074424773736609e+03 3.162277660168379256e+01
4.134948399579288889e+03 5.623413251903490817e+01
4.452433938071014381e+03 1.000000000000000000e+02
4.802454141612819512e+03 1.778279410038922776e+02
5.204111552645617849e+03 3.162277660168379612e+02
