# Temperature (K), Pressure (bars)
1.779501616908756660e+03 9.999999999999999547e-07
1.787562713751942965e+03 1.778279410038922901e-06
1.795623810999164562e+03 3.162277660168379191e-06
1.813466124562880850e+03 5.623413251903491208e-06
1.838754605606521181e+03 1.000000000000000082e-05
1.867661570050654291e+03 1.778279410038922901e-05
1.900685630892242898e+03 3.162277660168379530e-05
1.936332366004987080e+03 5.623413251903490700e-05
1.971899839179591709e+03 1.000000000000000048e-04
2.007320372812301684e+03 1.778279410038922698e-04
2.043159427621435498e+03 3.162277660168379394e-04
2.080079483399901619e+03 5.623413251903490971e-04
2.119276447471378560e+03 1.000000000000000021e-03
2.162083883111838531e+03 1.778279410038922752e-03
2.208558193996827868e+03 3.162277660168379394e-03
2.261952043218077961e+03 5.623413251903490971e-03
2.322287860259988520e+03 1.000000000000000021e-02
2.400890101865081306e+03 1.778279410038922925e-02
2.516620829038788543e+03 3.162277660168379134e-02
2.653837638955456896e+03 5.623413251903491145e-02
2.796624254817519613e+03 1.000000000000000056e-01
2.949653807933505959e+03 1.778279410038922925e-01
3.115481105933120489e+03 3.162277660168379412e-01
3.295276921535444217e+03 5.623413251903490728e-01
3.489094338659056120e+03 1.000000000000000000e+00
3.697809707716398407e+03 1.778279410038922759e+00
3.924676009181233439e+03 3.162277660168379523e+00
4.175378823362779258e+03 5.623413251903491172e+00
4.457058708109954750e+03 1.000000000000000000e+01
4.779524655364577484e+03 1.778279410038922848e+01
5.158175990439123780e+03 3.162277660168379256e+01
5.611560558397898603e+03 5.623413251903490817e+01
6.169520090037493901e+03 1.000000000000000000e+02
6.880345933201379012e+03 1.778279410038922776e+02
7.822320010753761380e+03 3.162277660168379612e+02
