# Temperature (K), Pressure (bars)
7.874059397411408554e+02 5.623413251903491208e-06
8.396584329571337548e+02 1.000000000000000082e-05
8.919109261022392730e+02 1.778279410038922901e-05
9.379442222719756046e+02 3.162277660168379530e-05
9.794754096674234916e+02 5.623413251903490700e-05
1.025409314945833785e+03 1.000000000000000048e-04
1.078313246116803839e+03 1.778279410038922698e-04
1.133382841712561685e+03 3.162277660168379394e-04
1.184937466333558177e+03 5.623413251903490971e-04
1.227895466318673925e+03 1.000000000000000021e-03
1.263620644375627535e+03 1.778279410038922752e-03
1.302487179455356682e+03 3.162277660168379394e-03
1.347212805930344075e+03 5.623413251903490971e-03
1.407435832108471914e+03 1.000000000000000021e-02
1.540530926451800042e+03 1.778279410038922925e-02
1.764363999811437907e+03 3.162277660168379134e-02
2.010870749589498701e+03 5.623413251903491145e-02
2.238978843125005824e+03 1.000000000000000056e-01
2.450747448784175504e+03 1.778279410038922925e-01
2.650419315356540210e+03 3.162277660168379412e-01
2.844390754622829263e+03 5.623413251903490728e-01
3.037243222396873080e+03 1.000000000000000000e+00
3.233045262830662523e+03 1.778279410038922759e+00
3.436552604550206524e+03 3.162277660168379523e+00
3.652780933548232497e+03 5.623413251903491172e+00
3.886699497711305867e+03 1.000000000000000000e+01
4.143548161441103730e+03 1.778279410038922848e+01
4.429373888549023832e+03 3.162277660168379256e+01
4.752076834410250740e+03 5.623413251903490817e+01
5.126451043874770221e+03 1.000000000000000000e+02
5.560622699136886695e+03 1.778279410038922776e+02
6.071723172009108566e+03 3.162277660168379612e+02
