# Temperature (K), Pressure (bars)
1.034602219488289620e+03 5.623413251903490971e-04
1.077080491051567151e+03 1.000000000000000021e-03
1.119558764764155740e+03 1.778279410038922752e-03
1.161687338003232071e+03 3.162277660168379394e-03
1.205225483743249697e+03 5.623413251903490971e-03
1.250819573664479776e+03 1.000000000000000021e-02
1.298643781888048352e+03 1.778279410038922925e-02
1.349812430293389525e+03 3.162277660168379134e-02
1.407179972429125655e+03 5.623413251903491145e-02
1.476491716955097218e+03 1.000000000000000056e-01
1.564164930445744631e+03 1.778279410038922925e-01
1.673535660508412093e+03 3.162277660168379412e-01
1.808359882157670199e+03 5.623413251903490728e-01
1.960594190761917844e+03 1.000000000000000000e+00
2.144834108067708712e+03 1.778279410038922759e+00
2.391385435082018830e+03 3.162277660168379523e+00
2.667682863647190970e+03 5.623413251903491172e+00
2.938079588806853735e+03 1.000000000000000000e+01
3.206650768901768970e+03 1.778279410038922848e+01
3.480984472821400232e+03 3.162277660168379256e+01
3.767967311880655416e+03 5.623413251903490817e+01
4.075107908792089347e+03 1.000000000000000000e+02
4.406327462570509852e+03 1.778279410038922776e+02
4.777488113368795894e+03 3.162277660168379612e+02
