# Temperature (K), Pressure (bars)
8.834378560465976307e+02 3.162277660168379530e-05
9.289444146028711202e+02 5.623413251903490700e-05
9.744509721883167686e+02 1.000000000000000048e-04
1.021066810581641334e+03 1.778279410038922698e-04
1.070628898672605374e+03 3.162277660168379394e-04
1.120525018563090043e+03 5.623413251903490971e-04
1.164920592464470928e+03 1.000000000000000021e-03
1.200980757215965468e+03 1.778279410038922752e-03
1.232197562385098763e+03 3.162277660168379394e-03
1.263897825354984889e+03 5.623413251903490971e-03
1.299648057927785203e+03 1.000000000000000021e-02
1.343091488888872846e+03 1.778279410038922925e-02
1.391018947723465999e+03 3.162277660168379134e-02
1.436569793844043943e+03 5.623413251903491145e-02
1.514364856526002995e+03 1.000000000000000056e-01
1.684538636339096229e+03 1.778279410038922925e-01
1.935016627438603564e+03 3.162277660168379412e-01
2.202792893353021555e+03 5.623413251903490728e-01
2.459324837264292455e+03 1.000000000000000000e+00
2.702651247058993249e+03 1.778279410038922759e+00
2.935446786157274801e+03 3.162277660168379523e+00
3.165004574702615628e+03 5.623413251903491172e+00
3.399076195414992981e+03 1.000000000000000000e+01
3.644590952678018766e+03 1.778279410038922848e+01
3.910059478087592197e+03 3.162277660168379256e+01
4.200046197640534047e+03 5.623413251903490817e+01
4.521259059988619811e+03 1.000000000000000000e+02
4.876680367466718053e+03 1.778279410038922776e+02
5.285900732872812114e+03 3.162277660168379612e+02
