# Temperature (K), Pressure (bars)
2.171730121373494512e+03 9.999999999999999547e-07
2.173552761886078770e+03 1.778279410038922901e-06
2.175375402398692131e+03 3.162277660168379191e-06
2.180560978327513567e+03 5.623413251903491208e-06
2.191087121088820822e+03 1.000000000000000082e-05
2.207402649561757244e+03 1.778279410038922901e-05
2.228647648880672932e+03 3.162277660168379530e-05
2.253034956446902015e+03 5.623413251903490700e-05
2.278981319198644087e+03 1.000000000000000048e-04
2.305680963576654904e+03 1.778279410038922698e-04
2.333118733809204969e+03 3.162277660168379394e-04
2.362368250620876097e+03 5.623413251903490971e-04
2.395682347479995315e+03 1.000000000000000021e-03
2.434592290824358770e+03 1.778279410038922752e-03
2.481646756809867838e+03 3.162277660168379394e-03
2.537669935642399651e+03 5.623413251903490971e-03
2.610951510938702540e+03 1.000000000000000021e-02
2.713424356793654169e+03 1.778279410038922925e-02
2.835823146371202256e+03 3.162277660168379134e-02
2.968958065028453802e+03 5.623413251903491145e-02
3.115931942687102492e+03 1.000000000000000056e-01
3.279204581728079120e+03 1.778279410038922925e-01
3.462118085049311958e+03 3.162277660168379412e-01
3.668502626475824400e+03 5.623413251903490728e-01
3.902365162355469693e+03 1.000000000000000000e+00
4.169524924671602093e+03 1.778279410038922759e+00
4.481017538648458867e+03 3.162277660168379523e+00
4.841386748265280403e+03 5.623413251903491172e+00
5.297043767006884082e+03 1.000000000000000000e+01
5.904554098570913993e+03 1.778279410038922848e+01
6.758210357786862005e+03 3.162277660168379256e+01
8.018219811819672032e+03 5.623413251903490817e+01
9.765099566717775815e+03 1.000000000000000000e+02
1.188788363239790306e+04 1.778279410038922776e+02
1.441474709624958996e+04 3.162277660168379612e+02
