# Temperature (K), Pressure (bars)
8.885194224489300723e+02 5.623413251903490971e-04
9.268935120433753809e+02 1.000000000000000021e-03
9.652676019771944311e+02 1.778279410038922752e-03
1.004724204509626134e+03 3.162277660168379394e-03
1.045974510891201589e+03 5.623413251903490971e-03
1.088613114473002952e+03 1.000000000000000021e-02
1.132647591516599277e+03 1.778279410038922925e-02
1.178865066541430451e+03 3.162277660168379134e-02
1.230423294440440031e+03 5.623413251903491145e-02
1.289200762183654660e+03 1.000000000000000056e-01
1.363993115203805473e+03 1.778279410038922925e-01
1.487060409820646782e+03 3.162277660168379412e-01
1.674017659739397004e+03 5.623413251903490728e-01
1.914225809563337179e+03 1.000000000000000000e+00
2.191898208378777326e+03 1.778279410038922759e+00
2.475022746985200683e+03 3.162277660168379523e+00
2.746310169674015924e+03 5.623413251903491172e+00
3.010540131224965080e+03 1.000000000000000000e+01
3.273513116437378358e+03 1.778279410038922848e+01
3.544849558810815324e+03 3.162277660168379256e+01
3.830846140934723280e+03 5.623413251903490817e+01
4.138754599493360729e+03 1.000000000000000000e+02
4.472266729105063860e+03 1.778279410038922776e+02
4.847708980738647369e+03 3.162277660168379612e+02
