# Temperature (K), Pressure (bars)
1.679907732683137510e+03 1.000000000000000082e-05
1.728173086389836953e+03 1.778279410038922901e-05
1.776438441086134617e+03 3.162277660168379530e-05
1.817747908607786030e+03 5.623413251903490700e-05
1.849159339602966156e+03 1.000000000000000048e-04
1.883974284069928672e+03 1.778279410038922698e-04
1.926627268141019840e+03 3.162277660168379394e-04
1.971597411899267399e+03 5.623413251903490971e-04
2.017765833567433901e+03 1.000000000000000021e-03
2.062022649254573025e+03 1.778279410038922752e-03
2.101345125955884214e+03 3.162277660168379394e-03
2.135863769964294079e+03 5.623413251903490971e-03
2.166224925563159559e+03 1.000000000000000021e-02
2.193735057109097397e+03 1.778279410038922925e-02
2.220955915464233840e+03 3.162277660168379134e-02
2.253202665402234743e+03 5.623413251903491145e-02
2.294529021728253610e+03 1.000000000000000056e-01
2.353797382631371875e+03 1.778279410038922925e-01
2.431567242499611893e+03 3.162277660168379412e-01
2.555592807832866583e+03 5.623413251903490728e-01
2.755385060906729905e+03 1.000000000000000000e+00
2.976449608589262880e+03 1.778279410038922759e+00
3.186865245919842891e+03 3.162277660168379523e+00
3.405793767519913217e+03 5.623413251903491172e+00
3.637795032158519462e+03 1.000000000000000000e+01
3.886941916373285494e+03 1.778279410038922848e+01
4.159888234017899777e+03 3.162277660168379256e+01
4.463065970758449112e+03 5.623413251903490817e+01
4.804148316426681959e+03 1.000000000000000000e+02
5.187048225137246845e+03 1.778279410038922776e+02
5.634929923327115830e+03 3.162277660168379612e+02
