# Temperature (K), Pressure (bars)
9.822368525680599305e+02 3.162277660168379394e-03
1.033848518842641852e+03 5.623413251903490971e-03
1.085460186765300477e+03 1.000000000000000021e-02
1.135419130180227057e+03 1.778279410038922925e-02
1.184394803270385410e+03 3.162277660168379134e-02
1.234351968297658232e+03 5.623413251903491145e-02
1.288046064078713925e+03 1.000000000000000056e-01
1.350052907869263208e+03 1.778279410038922925e-01
1.429013024251438083e+03 3.162277660168379412e-01
1.532862953638164072e+03 5.623413251903490728e-01
1.670880289497362128e+03 1.000000000000000000e+00
1.838182355700276958e+03 1.778279410038922759e+00
2.048930755120969934e+03 3.162277660168379523e+00
2.327254460298404865e+03 5.623413251903491172e+00
2.629359626956458214e+03 1.000000000000000000e+01
2.920379714688002878e+03 1.778279410038922848e+01
3.211712752055079363e+03 3.162277660168379256e+01
3.507994191890290040e+03 5.623413251903490817e+01
3.817086417324697322e+03 1.000000000000000000e+02
4.144322898822658317e+03 1.778279410038922776e+02
4.503841643129057957e+03 3.162277660168379612e+02
