# Temperature (K), Pressure (bars)
1.677843940059883607e+03 9.999999999999999547e-07
1.689207005385658704e+03 1.778279410038922901e-06
1.700570070727405437e+03 3.162277660168379191e-06
1.714105223428862701e+03 5.623413251903491208e-06
1.776945911186915509e+03 1.000000000000000082e-05
1.841657873566715125e+03 1.778279410038922901e-05
1.877961074114782150e+03 3.162277660168379530e-05
1.917769833878362533e+03 5.623413251903490700e-05
1.963700166048138499e+03 1.000000000000000048e-04
2.010022775710493988e+03 1.778279410038922698e-04
2.055566207318164743e+03 3.162277660168379394e-04
2.097403051080114892e+03 5.623413251903490971e-04
2.135451073842375081e+03 1.000000000000000021e-03
2.170366662061399893e+03 1.778279410038922752e-03
2.202368639984395486e+03 3.162277660168379394e-03
2.232289876490092865e+03 5.623413251903490971e-03
2.264000842545182877e+03 1.000000000000000021e-02
2.299785887526073566e+03 1.778279410038922925e-02
2.347509808120448724e+03 3.162277660168379134e-02
2.405514885577147197e+03 5.623413251903491145e-02
2.493877464941046583e+03 1.000000000000000056e-01
2.645553690204512350e+03 1.778279410038922925e-01
2.822109040289473796e+03 3.162277660168379412e-01
2.994897491725248074e+03 5.623413251903490728e-01
3.178014074223827265e+03 1.000000000000000000e+00
3.373358008565425735e+03 1.778279410038922759e+00
3.581932909874050438e+03 3.162277660168379523e+00
3.806343509402357085e+03 5.623413251903491172e+00
4.051102510321162299e+03 1.000000000000000000e+01
4.322115891602037664e+03 1.778279410038922848e+01
4.626609570342390725e+03 3.162277660168379256e+01
4.974189084382218425e+03 5.623413251903490817e+01
5.381651688187454965e+03 1.000000000000000000e+02
5.862739385263296754e+03 1.778279410038922776e+02
6.442334484031578540e+03 3.162277660168379612e+02
