# Temperature (K), Pressure (bars)
9.159554022878894557e+02 5.623413251903490700e-05
9.802335869656989189e+02 1.000000000000000048e-04
1.044511773309603086e+03 1.778279410038922698e-04
1.103259998308303238e+03 3.162277660168379394e-04
1.155242336238344024e+03 5.623413251903490971e-04
1.198994554104094277e+03 1.000000000000000021e-03
1.237408498254944107e+03 1.778279410038922752e-03
1.273765124595808402e+03 3.162277660168379394e-03
1.316702756424466543e+03 5.623413251903490971e-03
1.394462619939168007e+03 1.000000000000000021e-02
1.523674496711627398e+03 1.778279410038922925e-02
1.684418823763581941e+03 3.162277660168379134e-02
1.835513570628253774e+03 5.623413251903491145e-02
1.962814728183231182e+03 1.000000000000000056e-01
2.087702919286645283e+03 1.778279410038922925e-01
2.252722683067537218e+03 3.162277660168379412e-01
2.477190610853516773e+03 5.623413251903490728e-01
2.709623885701190375e+03 1.000000000000000000e+00
2.924263669856980414e+03 1.778279410038922759e+00
3.138999571020047824e+03 3.162277660168379523e+00
3.359400922214057118e+03 5.623413251903491172e+00
3.590269218503859065e+03 1.000000000000000000e+01
3.837094304757138616e+03 1.778279410038922848e+01
4.107620848492029836e+03 3.162277660168379256e+01
4.407243069501185346e+03 5.623413251903490817e+01
4.743290022889223110e+03 1.000000000000000000e+02
5.119406970142179489e+03 1.778279410038922776e+02
5.557543163511091734e+03 3.162277660168379612e+02
