# Temperature (K), Pressure (bars)
2.162846878503586140e+03 9.999999999999999547e-07
2.191529542683280852e+03 1.778279410038922901e-06
2.220212206862976018e+03 3.162277660168379191e-06
2.256446874944341744e+03 5.623413251903491208e-06
2.298299088520025180e+03 1.000000000000000082e-05
2.343532169588817396e+03 1.778279410038922901e-05
2.391104953650312837e+03 3.162277660168379530e-05
2.439000515444634402e+03 5.623413251903490700e-05
2.485414307838310378e+03 1.000000000000000048e-04
2.528571163266003168e+03 1.778279410038922698e-04
2.567866357897876696e+03 3.162277660168379394e-04
2.604131136877062090e+03 5.623413251903490971e-04
2.639196778309543333e+03 1.000000000000000021e-03
2.676276943652537284e+03 1.778279410038922752e-03
2.719133190762087906e+03 3.162277660168379394e-03
2.771771433849642108e+03 5.623413251903490971e-03
2.836596982920320443e+03 1.000000000000000021e-02
2.916096973866991448e+03 1.778279410038922925e-02
3.020634455867440920e+03 3.162277660168379134e-02
3.157508260305958629e+03 5.623413251903491145e-02
3.324246564420351206e+03 1.000000000000000056e-01
3.508959028995310746e+03 1.778279410038922925e-01
3.720976680600737382e+03 3.162277660168379412e-01
3.970847335822670630e+03 5.623413251903490728e-01
4.256849550176454613e+03 1.000000000000000000e+00
4.614571887042259732e+03 1.778279410038922759e+00
5.099416376593455425e+03 3.162277660168379523e+00
5.816731439562267951e+03 5.623413251903491172e+00
6.927005143538252014e+03 1.000000000000000000e+01
8.507001777173743903e+03 1.778279410038922848e+01
1.000000000000000000e+04 3.162277660168379256e+01
1.000000000000000000e+04 5.623413251903490817e+01
1.000000000000000000e+04 1.000000000000000000e+02
1.000000000000000000e+04 1.778279410038922776e+02
1.000000000000000000e+04 3.162277660168379612e+02
