# Temperature (K), Pressure (bars)
1.151902748617273801e+03 9.999999999999999547e-07
1.154213212378800336e+03 1.778279410038922901e-06
1.156523676149093944e+03 3.162277660168379191e-06
1.164060041464986625e+03 5.623413251903491208e-06
1.178016104985064430e+03 1.000000000000000082e-05
1.199057501795913140e+03 1.778279410038922901e-05
1.226936128212025551e+03 3.162277660168379530e-05
1.261346305785735240e+03 5.623413251903490700e-05
1.302514827833626896e+03 1.000000000000000048e-04
1.349615728914618103e+03 1.778279410038922698e-04
1.402750524487597659e+03 3.162277660168379394e-04
1.463046746472759423e+03 5.623413251903490971e-04
1.530034414530416143e+03 1.000000000000000021e-03
1.607894555089407731e+03 1.778279410038922752e-03
1.699599437759903367e+03 3.162277660168379394e-03
1.796738290687829704e+03 5.623413251903490971e-03
1.893819143595834248e+03 1.000000000000000021e-02
2.006783742975238738e+03 1.778279410038922925e-02
2.158261700847869633e+03 3.162277660168379134e-02
2.335914745271259562e+03 5.623413251903491145e-02
2.513144036449277792e+03 1.000000000000000056e-01
2.686003656585345198e+03 1.778279410038922925e-01
2.859685852031362629e+03 3.162277660168379412e-01
3.037994604666718715e+03 5.623413251903490728e-01
3.223574163927773952e+03 1.000000000000000000e+00
3.418600704034507999e+03 1.778279410038922759e+00
3.626024520474134079e+03 3.162277660168379523e+00
3.850058744830088472e+03 5.623413251903491172e+00
4.095838853080435001e+03 1.000000000000000000e+01
4.369355821545331310e+03 1.778279410038922848e+01
4.678056909220727903e+03 3.162277660168379256e+01
5.032085198595066686e+03 5.623413251903490817e+01
5.449266868210615939e+03 1.000000000000000000e+02
5.944088182627702736e+03 1.778279410038922776e+02
6.543635851155648197e+03 3.162277660168379612e+02
