# Temperature (K), Pressure (bars)
1.028915954839884989e+03 3.162277660168379394e-03
1.075889974654754951e+03 5.623413251903490971e-03
1.122863995214635452e+03 1.000000000000000021e-02
1.168210479850552019e+03 1.778279410038922925e-02
1.215060012500850007e+03 3.162277660168379134e-02
1.265119773752110632e+03 5.623413251903491145e-02
1.317661306756182512e+03 1.000000000000000056e-01
1.381713253153527376e+03 1.778279410038922925e-01
1.477075970908951149e+03 3.162277660168379412e-01
1.612255207429323718e+03 5.623413251903490728e-01
1.775774298837717879e+03 1.000000000000000000e+00
1.967494024594047460e+03 1.778279410038922759e+00
2.214336314441207378e+03 3.162277660168379523e+00
2.505744494887157543e+03 5.623413251903491172e+00
2.796364055141074459e+03 1.000000000000000000e+01
3.075916412103807033e+03 1.778279410038922848e+01
3.357503034604147160e+03 3.162277660168379256e+01
3.648046315518314259e+03 5.623413251903490817e+01
3.955365690935401290e+03 1.000000000000000000e+02
4.284192608478631882e+03 1.778279410038922776e+02
4.649362558587312378e+03 3.162277660168379612e+02
