# Temperature (K), Pressure (bars)
1.886223017401600828e+03 9.999999999999999547e-07
1.894140006353297849e+03 1.778279410038922901e-06
1.902056995308178102e+03 3.162277660168379191e-06
1.921171291226215544e+03 5.623413251903491208e-06
1.950335774661449250e+03 1.000000000000000082e-05
1.987290842477609203e+03 1.778279410038922901e-05
2.032436003272007156e+03 3.162277660168379530e-05
2.080784042773036617e+03 5.623413251903490700e-05
2.126506540539697198e+03 1.000000000000000048e-04
2.167640720469640655e+03 1.778279410038922698e-04
2.203665511907641303e+03 3.162277660168379394e-04
2.235504817730824470e+03 5.623413251903490971e-04
2.265203315460086287e+03 1.000000000000000021e-03
2.294927853913990475e+03 1.778279410038922752e-03
2.326506265710123444e+03 3.162277660168379394e-03
2.362377386671703789e+03 5.623413251903490971e-03
2.404140299346586289e+03 1.000000000000000021e-02
2.456035466699295284e+03 1.778279410038922925e-02
2.517982978356381864e+03 3.162277660168379134e-02
2.603176631670607094e+03 5.623413251903491145e-02
2.731206972094041703e+03 1.000000000000000056e-01
2.882217985577570289e+03 1.778279410038922925e-01
3.039951318248679854e+03 3.162277660168379412e-01
3.211221620961252938e+03 5.623413251903490728e-01
3.397778991473199312e+03 1.000000000000000000e+00
3.600374047199058168e+03 1.778279410038922759e+00
3.820469130165499337e+03 3.162277660168379523e+00
4.061637106681785554e+03 5.623413251903491172e+00
4.329708713227854787e+03 1.000000000000000000e+01
4.632520575942751748e+03 1.778279410038922848e+01
4.980694983318169761e+03 3.162277660168379256e+01
5.391987052521035366e+03 5.623413251903490817e+01
5.884498645160439992e+03 1.000000000000000000e+02
6.488822620059873771e+03 1.778279410038922776e+02
7.252416997283728051e+03 3.162277660168379612e+02
