# Temperature (K), Pressure (bars)
1.044611840225242759e+03 3.162277660168379394e-04
1.105845252507915120e+03 5.623413251903490971e-04
1.167078668274503343e+03 1.000000000000000021e-03
1.229882855776823362e+03 1.778279410038922752e-03
1.291961279219105108e+03 3.162277660168379394e-03
1.353698257624466805e+03 5.623413251903490971e-03
1.419578226118844668e+03 1.000000000000000021e-02
1.487671970675983175e+03 1.778279410038922925e-02
1.564159561383193250e+03 3.162277660168379134e-02
1.655066941930647317e+03 5.623413251903491145e-02
1.743125857749863599e+03 1.000000000000000056e-01
1.824641437583019069e+03 1.778279410038922925e-01
1.917417637175389473e+03 3.162277660168379412e-01
2.027750029229986012e+03 5.623413251903490728e-01
2.172273582302312661e+03 1.000000000000000000e+00
2.385574713120197885e+03 1.778279410038922759e+00
2.647600455073679768e+03 3.162277660168379523e+00
2.907986327012085439e+03 5.623413251903491172e+00
3.159911215155742411e+03 1.000000000000000000e+01
3.415220487049687108e+03 1.778279410038922848e+01
3.682370617539359955e+03 3.162277660168379256e+01
3.967976234322122764e+03 5.623413251903490817e+01
4.279004720230869680e+03 1.000000000000000000e+02
4.618717849075757840e+03 1.778279410038922776e+02
5.004448827236872603e+03 3.162277660168379612e+02
