# Temperature (K), Pressure (bars)
2.432712284220363472e+03 9.999999999999999547e-07
2.460159411664742038e+03 1.778279410038922901e-06
2.487606539109120604e+03 3.162277660168379191e-06
2.516743791841709935e+03 5.623413251903491208e-06
2.549647122798655346e+03 1.000000000000000082e-05
2.583606904349845536e+03 1.778279410038922901e-05
2.619313524730814606e+03 3.162277660168379530e-05
2.658652605756979938e+03 5.623413251903490700e-05
2.700418636740750117e+03 1.000000000000000048e-04
2.744153672515620201e+03 1.778279410038922698e-04
2.788790352021190756e+03 3.162277660168379394e-04
2.831508390938971388e+03 5.623413251903490971e-04
2.868593414759762254e+03 1.000000000000000021e-03
2.898331844841752172e+03 1.778279410038922752e-03
2.924863608659897181e+03 3.162277660168379394e-03
2.958714378030319494e+03 5.623413251903490971e-03
3.009110843198122438e+03 1.000000000000000021e-02
3.080667677734245444e+03 1.778279410038922925e-02
3.169558650378929997e+03 3.162277660168379134e-02
3.278343605814850889e+03 5.623413251903491145e-02
3.427186288242117371e+03 1.000000000000000056e-01
3.625168435346381102e+03 1.778279410038922925e-01
3.861066798303887936e+03 3.162277660168379412e-01
4.135744587985954240e+03 5.623413251903490728e-01
4.489428588769823364e+03 1.000000000000000000e+00
4.992736923388276409e+03 1.778279410038922759e+00
5.801640140447319936e+03 3.162277660168379523e+00
7.076883745523006837e+03 5.623413251903491172e+00
8.721448117869762427e+03 1.000000000000000000e+01
1.000000000000000000e+04 1.778279410038922848e+01
1.000000000000000000e+04 3.162277660168379256e+01
1.000000000000000000e+04 5.623413251903490817e+01
1.000000000000000000e+04 1.000000000000000000e+02
1.000000000000000000e+04 1.778279410038922776e+02
1.000000000000000000e+04 3.162277660168379612e+02
