# Temperature (K), Pressure (bars)
1.859609316358646311e+03 9.999999999999999547e-07
1.876560446914306112e+03 1.778279410038922901e-06
1.893511577469965005e+03 3.162277660168379191e-06
1.915650938860926317e+03 5.623413251903491208e-06
1.943615192461173365e+03 1.000000000000000082e-05
1.977420468179073623e+03 1.778279410038922901e-05
2.018625752947378487e+03 3.162277660168379530e-05
2.066068600933384459e+03 5.623413251903490700e-05
2.117887001761213924e+03 1.000000000000000048e-04
2.173684155448603178e+03 1.778279410038922698e-04
2.233986009682324038e+03 3.162277660168379394e-04
2.299943771681517319e+03 5.623413251903490971e-04
2.374655083498899330e+03 1.000000000000000021e-03
2.462793523048613679e+03 1.778279410038922752e-03
2.564022125336175122e+03 3.162277660168379394e-03
2.675553829898851291e+03 5.623413251903490971e-03
2.797214876705262213e+03 1.000000000000000021e-02
2.930173008745126481e+03 1.778279410038922925e-02
3.076897996476032858e+03 3.162277660168379134e-02
3.242018918762669728e+03 5.623413251903491145e-02
3.435101162591468892e+03 1.000000000000000056e-01
3.641912348648774241e+03 1.778279410038922925e-01
3.890270640866773192e+03 3.162277660168379412e-01
4.174616200870173998e+03 5.623413251903490728e-01
4.547970019993390451e+03 1.000000000000000000e+00
5.096289862876681582e+03 1.778279410038922759e+00
5.986113499759165279e+03 3.162277660168379523e+00
7.343843481327548034e+03 5.623413251903491172e+00
9.026565247551217908e+03 1.000000000000000000e+01
1.000000000000000000e+04 1.778279410038922848e+01
1.000000000000000000e+04 3.162277660168379256e+01
1.000000000000000000e+04 5.623413251903490817e+01
1.000000000000000000e+04 1.000000000000000000e+02
1.000000000000000000e+04 1.778279410038922776e+02
1.000000000000000000e+04 3.162277660168379612e+02
