# Temperature (K), Pressure (bars)
1.789290451683753872e+03 3.162277660168379530e-05
1.804290879403372628e+03 5.623413251903490700e-05
1.819498474898600534e+03 1.000000000000000048e-04
1.836161465958909957e+03 1.778279410038922698e-04
1.855936956042215570e+03 3.162277660168379394e-04
1.880976515739132537e+03 5.623413251903490971e-04
1.913237228537291685e+03 1.000000000000000021e-03
1.951869298147441441e+03 1.778279410038922752e-03
1.995884932761832715e+03 3.162277660168379394e-03
2.045325594216189529e+03 5.623413251903490971e-03
2.098901088051999977e+03 1.000000000000000021e-02
2.157073167803710021e+03 1.778279410038922925e-02
2.219393302123654394e+03 3.162277660168379134e-02
2.292524143437416569e+03 5.623413251903491145e-02
2.376653811294856496e+03 1.000000000000000056e-01
2.490632909501438462e+03 1.778279410038922925e-01
2.661566085558339637e+03 3.162277660168379412e-01
2.850958356384393028e+03 5.623413251903490728e-01
3.033180135490919383e+03 1.000000000000000000e+00
3.223768975896779011e+03 1.778279410038922759e+00
3.427024772794831733e+03 3.162277660168379523e+00
3.645511547672409506e+03 5.623413251903491172e+00
3.882098848074234866e+03 1.000000000000000000e+01
4.141136073810806920e+03 1.778279410038922848e+01
4.428622574465485741e+03 3.162277660168379256e+01
4.752551743712606367e+03 5.623413251903490817e+01
5.127236532158080081e+03 1.000000000000000000e+02
5.562589600504364171e+03 1.778279410038922776e+02
6.076804754400669481e+03 3.162277660168379612e+02
