# Temperature (K), Pressure (bars)
2.248035566412179833e+03 9.999999999999999547e-07
2.262611846365225574e+03 1.778279410038922901e-06
2.277188126318271770e+03 3.162277660168379191e-06
2.291518400695809305e+03 5.623413251903491208e-06
2.308616834286286576e+03 1.000000000000000082e-05
2.329331815445706070e+03 1.778279410038922901e-05
2.351892901013831761e+03 3.162277660168379530e-05
2.374438034733300810e+03 5.623413251903490700e-05
2.395532968657722449e+03 1.000000000000000048e-04
2.415064809389661605e+03 1.778279410038922698e-04
2.434710295757168751e+03 3.162277660168379394e-04
2.457052516880879011e+03 5.623413251903490971e-04
2.484713759599474088e+03 1.000000000000000021e-03
2.519506196600815656e+03 1.778279410038922752e-03
2.563941194575029840e+03 3.162277660168379394e-03
2.619243002128027911e+03 5.623413251903490971e-03
2.691319807343249977e+03 1.000000000000000021e-02
2.790129421810922395e+03 1.778279410038922925e-02
2.911343428276369195e+03 3.162277660168379134e-02
3.047157844440613644e+03 5.623413251903491145e-02
3.198674995091731034e+03 1.000000000000000056e-01
3.369231191924864106e+03 1.778279410038922925e-01
3.563582226400049876e+03 3.162277660168379412e-01
3.787609329974540742e+03 5.623413251903490728e-01
4.048692138331830392e+03 1.000000000000000000e+00
4.359349817026097298e+03 1.778279410038922759e+00
4.713112911299878760e+03 3.162277660168379523e+00
5.172561951964709806e+03 5.623413251903491172e+00
5.810567614528828017e+03 1.000000000000000000e+01
6.740685787426421484e+03 1.778279410038922848e+01
8.131075930216077722e+03 3.162277660168379256e+01
9.942631967662826355e+03 5.623413251903490817e+01
1.209746785423081019e+04 1.000000000000000000e+02
1.472340067675843784e+04 1.778279410038922776e+02
1.785297566118698887e+04 3.162277660168379612e+02
