# Temperature (K), Pressure (bars)
9.279849711508162500e+02 5.623413251903490700e-05
9.851517687998150450e+02 1.000000000000000048e-04
1.042318566515971497e+03 1.778279410038922698e-04
1.097256073965878159e+03 3.162277660168379394e-04
1.147732416863067556e+03 5.623413251903490971e-04
1.190292063983793241e+03 1.000000000000000021e-03
1.224492279410329274e+03 1.778279410038922752e-03
1.254540114812815773e+03 3.162277660168379394e-03
1.285150550411357017e+03 5.623413251903490971e-03
1.314719458811094228e+03 1.000000000000000021e-02
1.352339863282002852e+03 1.778279410038922925e-02
1.421087796132369476e+03 3.162277660168379134e-02
1.527411610548107774e+03 5.623413251903491145e-02
1.663796929771536043e+03 1.000000000000000056e-01
1.806809174122987088e+03 1.778279410038922925e-01
1.938728068527481128e+03 3.162277660168379412e-01
2.076192262783890328e+03 5.623413251903490728e-01
2.267127980622609812e+03 1.000000000000000000e+00
2.525438813911674515e+03 1.778279410038922759e+00
2.789763364242980970e+03 3.162277660168379523e+00
3.033565363406895813e+03 5.623413251903491172e+00
3.276546471115314034e+03 1.000000000000000000e+01
3.526616534262046116e+03 1.778279410038922848e+01
3.792150432944516069e+03 3.162277660168379256e+01
4.079147242837243084e+03 5.623413251903490817e+01
4.394365687990087281e+03 1.000000000000000000e+02
4.741092906143629989e+03 1.778279410038922776e+02
5.137306238213715005e+03 3.162277660168379612e+02
