# Temperature (K), Pressure (bars)
1.670181705457968746e+03 1.000000000000000082e-05
1.686819476551004072e+03 1.778279410038922901e-05
1.703457251041493691e+03 3.162277660168379530e-05
1.727289289161025863e+03 5.623413251903490700e-05
1.756488978073993394e+03 1.000000000000000048e-04
1.789139738967381163e+03 1.778279410038922698e-04
1.825520966176683487e+03 3.162277660168379394e-04
1.861960210083286256e+03 5.623413251903490971e-04
1.896776398901326957e+03 1.000000000000000021e-03
1.931411989821481029e+03 1.778279410038922752e-03
1.966788421558947903e+03 3.162277660168379394e-03
2.004648385748099827e+03 5.623413251903490971e-03
2.045420631975482365e+03 1.000000000000000021e-02
2.090084268364480977e+03 1.778279410038922925e-02
2.138838600883759682e+03 3.162277660168379134e-02
2.198330529155778095e+03 5.623413251903491145e-02
2.267720541157288608e+03 1.000000000000000056e-01
2.374878233224064843e+03 1.778279410038922925e-01
2.554761574648081478e+03 3.162277660168379412e-01
2.757312525513209494e+03 5.623413251903490728e-01
2.948510231781662242e+03 1.000000000000000000e+00
3.145415665518269634e+03 1.778279410038922759e+00
3.351868911458258935e+03 3.162277660168379523e+00
3.570144993384702957e+03 5.623413251903491172e+00
3.803864225191012792e+03 1.000000000000000000e+01
4.058154582771948753e+03 1.778279410038922848e+01
4.340660713142921850e+03 3.162277660168379256e+01
4.658077042910945238e+03 5.623413251903490817e+01
5.019280611998768109e+03 1.000000000000000000e+02
5.428569047195386702e+03 1.778279410038922776e+02
5.914271983913482472e+03 3.162277660168379612e+02
