# Temperature (K), Pressure (bars)
3.267803409703193392e+04 9.999999999999999547e-07
3.954621058922211523e+04 1.778279410038922901e-06
4.784784633534710156e+04 3.162277660168379191e-06
5.730000914343271870e+04 5.623413251903491208e-06
6.733507938923857000e+04 1.000000000000000082e-05
7.717678811686314293e+04 1.778279410038922901e-05
8.615881521853037702e+04 3.162277660168379530e-05
9.399464513078058371e+04 5.623413251903490700e-05
1.007679425311832165e+05 1.000000000000000048e-04
1.067622715164930560e+05 1.778279410038922698e-04
1.122858336998825980e+05 3.162277660168379394e-04
1.175976176799234963e+05 5.623413251903490971e-04
1.229041533451038704e+05 1.000000000000000021e-03
1.283628491383365763e+05 1.778279410038922752e-03
1.341246192765069136e+05 3.162277660168379394e-03
1.403328848082567274e+05 5.623413251903490971e-03
1.471548633550759405e+05 1.000000000000000021e-02
1.548042044524936355e+05 1.778279410038922925e-02
1.635491420089914463e+05 3.162277660168379134e-02
1.737423216342480446e+05 5.623413251903491145e-02
1.858567696225626278e+05 1.000000000000000056e-01
2.005017869637427793e+05 1.778279410038922925e-01
2.184828796220098156e+05 3.162277660168379412e-01
2.408409401058080257e+05 5.623413251903490728e-01
2.688931713412492536e+05 1.000000000000000000e+00
3.043429870050394675e+05 1.778279410038922759e+00
3.493030855305632576e+05 3.162277660168379523e+00
4.064402832756707212e+05 5.623413251903491172e+00
4.790034912211187766e+05 1.000000000000000000e+01
5.709707638634725008e+05 1.778279410038922848e+01
6.870947565170407761e+05 3.162277660168379256e+01
8.327276070687731262e+05 5.623413251903490817e+01
1.013346310786618153e+06 1.000000000000000000e+02
1.233764515633851523e+06 1.778279410038922776e+02
1.496822433655382833e+06 3.162277660168379612e+02
