# Temperature (K), Pressure (bars)
9.767833164697310622e+02 3.162277660168379530e-05
1.012486586629202179e+03 5.623413251903490700e-05
1.048189862460582617e+03 1.000000000000000048e-04
1.113477946641202379e+03 1.778279410038922698e-04
1.203629581131790246e+03 3.162277660168379394e-04
1.316423926057683502e+03 5.623413251903490971e-04
1.467829469582613456e+03 1.000000000000000021e-03
1.593554539541595659e+03 1.778279410038922752e-03
1.654655151062191862e+03 3.162277660168379394e-03
1.693482173183148916e+03 5.623413251903490971e-03
1.728427840473492779e+03 1.000000000000000021e-02
1.760130464733486860e+03 1.778279410038922925e-02
1.795743226320066015e+03 3.162277660168379134e-02
1.840594740806680420e+03 5.623413251903491145e-02
1.891032791531795283e+03 1.000000000000000056e-01
1.954785812587486589e+03 1.778279410038922925e-01
2.031491750335170764e+03 3.162277660168379412e-01
2.154817045638261789e+03 5.623413251903490728e-01
2.375861014890833758e+03 1.000000000000000000e+00
2.633675804472790787e+03 1.778279410038922759e+00
2.873601904069349985e+03 3.162277660168379523e+00
3.109818048438381084e+03 5.623413251903491172e+00
3.348923180566228893e+03 1.000000000000000000e+01
3.597205718668084046e+03 1.778279410038922848e+01
3.862716143581258166e+03 3.162277660168379256e+01
4.151428503059415561e+03 5.623413251903490817e+01
4.470174133141936181e+03 1.000000000000000000e+02
4.822142583270262548e+03 1.778279410038922776e+02
5.226265349119210441e+03 3.162277660168379612e+02
