# Temperature (K), Pressure (bars)
1.049424510552501488e+03 5.623413251903490971e-04
1.091770414399201627e+03 1.000000000000000021e-03
1.134116320131837028e+03 1.778279410038922752e-03
1.176566289969604441e+03 3.162277660168379394e-03
1.221280119299757871e+03 5.623413251903490971e-03
1.268796437329584478e+03 1.000000000000000021e-02
1.320565850865247739e+03 1.778279410038922925e-02
1.379796605819166189e+03 3.162277660168379134e-02
1.446788640946200758e+03 5.623413251903491145e-02
1.521854181936595751e+03 1.000000000000000056e-01
1.613231418575252746e+03 1.778279410038922925e-01
1.720886964678257073e+03 3.162277660168379412e-01
1.844495095309505814e+03 5.623413251903490728e-01
1.983893783902566838e+03 1.000000000000000000e+00
2.168574914713971793e+03 1.778279410038922759e+00
2.431341320847874613e+03 3.162277660168379523e+00
2.716879140085445215e+03 5.623413251903491172e+00
2.984605911079402631e+03 1.000000000000000000e+01
3.250166062588238674e+03 1.778279410038922848e+01
3.522554465022213208e+03 3.162277660168379256e+01
3.808885717219709022e+03 5.623413251903490817e+01
4.116427727443657204e+03 1.000000000000000000e+02
4.448940788449770480e+03 1.778279410038922776e+02
4.822679430175027846e+03 3.162277660168379612e+02
