# Temperature (K), Pressure (bars)
2.390668327458931344e+03 9.999999999999999547e-07
2.400992776715650507e+03 1.778279410038922901e-06
2.411317225972370125e+03 3.162277660168379191e-06
2.438100783953948394e+03 5.623413251903491208e-06
2.470779026868821347e+03 1.000000000000000082e-05
2.502413029608756005e+03 1.778279410038922901e-05
2.535627648770412179e+03 3.162277660168379530e-05
2.572519110532283776e+03 5.623413251903490700e-05
2.613632401063112866e+03 1.000000000000000048e-04
2.659204381530743376e+03 1.778279410038922698e-04
2.708779008193462687e+03 3.162277660168379394e-04
2.760409043535001729e+03 5.623413251903490971e-04
2.811798954477445932e+03 1.000000000000000021e-03
2.859482161700199867e+03 1.778279410038922752e-03
2.900077368013598061e+03 3.162277660168379394e-03
2.934307591593312736e+03 5.623413251903490971e-03
2.967766427974992439e+03 1.000000000000000021e-02
3.011479267609555791e+03 1.778279410038922925e-02
3.069179101201476442e+03 3.162277660168379134e-02
3.149097657452951353e+03 5.623413251903491145e-02
3.273367062384941164e+03 1.000000000000000056e-01
3.439307233935605836e+03 1.778279410038922925e-01
3.631453091035811212e+03 3.162277660168379412e-01
3.851848134370076423e+03 5.623413251903490728e-01
4.111932831846575937e+03 1.000000000000000000e+00
4.411256744759989488e+03 1.778279410038922759e+00
4.785784516907923717e+03 3.162277660168379523e+00
5.286891311727406901e+03 5.623413251903491172e+00
6.023765478843653000e+03 1.000000000000000000e+01
7.174864073403403381e+03 1.778279410038922848e+01
8.788925185633155706e+03 3.162277660168379256e+01
1.000000000000000000e+04 5.623413251903490817e+01
1.000000000000000000e+04 1.000000000000000000e+02
1.000000000000000000e+04 1.778279410038922776e+02
1.000000000000000000e+04 3.162277660168379612e+02
