# Temperature (K), Pressure (bars)
1.158528164216709229e+03 9.999999999999999547e-07
1.167805929725197529e+03 1.778279410038922901e-06
1.177083695247547439e+03 3.162277660168379191e-06
1.192172071324140234e+03 5.623413251903491208e-06
1.214679265038761287e+03 1.000000000000000082e-05
1.243622942861165484e+03 1.778279410038922901e-05
1.279610631860635976e+03 3.162277660168379530e-05
1.323046823196425066e+03 5.623413251903490700e-05
1.373210500465752375e+03 1.000000000000000048e-04
1.430213238408169673e+03 1.778279410038922698e-04
1.494020279578258624e+03 3.162277660168379394e-04
1.567689571507713481e+03 5.623413251903490971e-04
1.650802961358221637e+03 1.000000000000000021e-03
1.735028501369823744e+03 1.778279410038922752e-03
1.821592436154024199e+03 3.162277660168379394e-03
1.913051184671962346e+03 5.623413251903490971e-03
2.024360536692961659e+03 1.000000000000000021e-02
2.176152916880762859e+03 1.778279410038922925e-02
2.345854101067585816e+03 3.162277660168379134e-02
2.510552446231960857e+03 5.623413251903491145e-02
2.674098027657174498e+03 1.000000000000000056e-01
2.840117311577635064e+03 1.778279410038922925e-01
3.011590654838577393e+03 3.162277660168379412e-01
3.190578140382564015e+03 5.623413251903490728e-01
3.378580394372724186e+03 1.000000000000000000e+00
3.577983947272019122e+03 1.778279410038922759e+00
3.792786867843067284e+03 3.162277660168379523e+00
4.028063320402660793e+03 5.623413251903491172e+00
4.289767920860339473e+03 1.000000000000000000e+01
4.585286866974172881e+03 1.778279410038922848e+01
4.924678344319962889e+03 3.162277660168379256e+01
5.325188104701884185e+03 5.623413251903490817e+01
5.803091486144482587e+03 1.000000000000000000e+02
6.387412774843223815e+03 1.778279410038922776e+02
7.123201319493517076e+03 3.162277660168379612e+02
