# Temperature (K), Pressure (bars)
1.559587283639503084e+03 5.623413251903490700e-05
1.576572414977062181e+03 1.000000000000000048e-04
1.593557548441421886e+03 1.778279410038922698e-04
1.615940810252551501e+03 3.162277660168379394e-04
1.643972945550790655e+03 5.623413251903490971e-04
1.678054932330166594e+03 1.000000000000000021e-03
1.718885354273700841e+03 1.778279410038922752e-03
1.764975808690931217e+03 3.162277660168379394e-03
1.816076813699658715e+03 5.623413251903490971e-03
1.870952146441095692e+03 1.000000000000000021e-02
1.928373005462075753e+03 1.778279410038922925e-02
1.990068485008706830e+03 3.162277660168379134e-02
2.057341297464995023e+03 5.623413251903491145e-02
2.137016149281651451e+03 1.000000000000000056e-01
2.229410943230940575e+03 1.778279410038922925e-01
2.360408328686984987e+03 3.162277660168379412e-01
2.558288570994697238e+03 5.623413251903490728e-01
2.775415757578207376e+03 1.000000000000000000e+00
2.980855186988469086e+03 1.778279410038922759e+00
3.190450721216408965e+03 3.162277660168379523e+00
3.409302969898489664e+03 5.623413251903491172e+00
3.640913103146987396e+03 1.000000000000000000e+01
3.889679372796526877e+03 1.778279410038922848e+01
4.162524895195426325e+03 3.162277660168379256e+01
4.465694672655263275e+03 5.623413251903490817e+01
4.806873504810013401e+03 1.000000000000000000e+02
5.189564972575774846e+03 1.778279410038922776e+02
5.637841270378288755e+03 3.162277660168379612e+02
