# Temperature (K), Pressure (bars)
1.005321969253745920e+03 3.162277660168379394e-04
1.059185658309412929e+03 5.623413251903490971e-04
1.113049347249301491e+03 1.000000000000000021e-03
1.159424785796686137e+03 1.778279410038922752e-03
1.196196704804569663e+03 3.162277660168379394e-03
1.227185078963586193e+03 5.623413251903490971e-03
1.257203083225066848e+03 1.000000000000000021e-02
1.289393324739320860e+03 1.778279410038922925e-02
1.326556589657244558e+03 3.162277660168379134e-02
1.370797444959276390e+03 5.623413251903491145e-02
1.419143626954964020e+03 1.000000000000000056e-01
1.469824044044369657e+03 1.778279410038922925e-01
1.548955736464687789e+03 3.162277660168379412e-01
1.671005552189149284e+03 5.623413251903490728e-01
1.855290630710551113e+03 1.000000000000000000e+00
2.125395342834100120e+03 1.778279410038922759e+00
2.421258408680223056e+03 3.162277660168379523e+00
2.697878197524674306e+03 5.623413251903491172e+00
2.966528836290940944e+03 1.000000000000000000e+01
3.232652600761010490e+03 1.778279410038922848e+01
3.505558497753995653e+03 3.162277660168379256e+01
3.791992763469902002e+03 5.623413251903490817e+01
4.099310122021864117e+03 1.000000000000000000e+02
4.431229808456936553e+03 1.778279410038922776e+02
4.803788725094407710e+03 3.162277660168379612e+02
