# Temperature (K), Pressure (bars)
1.003038491590574608e+03 5.623413251903490700e-05
1.033315654495958825e+03 1.000000000000000048e-04
1.063592819826127197e+03 1.778279410038922698e-04
1.112827446784104495e+03 3.162277660168379394e-04
1.190836872474092161e+03 5.623413251903490971e-04
1.300139555543461483e+03 1.000000000000000021e-03
1.448662977318346293e+03 1.778279410038922752e-03
1.573753360763458431e+03 3.162277660168379394e-03
1.637354776156073967e+03 5.623413251903490971e-03
1.677528124086412618e+03 1.000000000000000021e-02
1.711543613357514232e+03 1.778279410038922925e-02
1.742181032330724065e+03 3.162277660168379134e-02
1.777971465628897022e+03 5.623413251903491145e-02
1.820179549808028696e+03 1.000000000000000056e-01
1.867789182602901747e+03 1.778279410038922925e-01
1.927619418073928728e+03 3.162277660168379412e-01
2.003100162895656467e+03 5.623413251903490728e-01
2.114389546022976447e+03 1.000000000000000000e+00
2.312156149244780863e+03 1.778279410038922759e+00
2.583335863639733816e+03 3.162277660168379523e+00
2.856168651852783114e+03 5.623413251903491172e+00
3.113071712602536536e+03 1.000000000000000000e+01
3.371128760427492125e+03 1.778279410038922848e+01
3.639461045397767521e+03 3.162277660168379256e+01
3.925020878107488443e+03 5.623413251903490817e+01
4.234872669716906785e+03 1.000000000000000000e+02
4.572298646249493686e+03 1.778279410038922776e+02
4.954447598560574988e+03 3.162277660168379612e+02
