# Temperature (K), Pressure (bars)
9.693502105792817929e+02 3.162277660168379394e-03
1.009851946557728184e+03 5.623413251903490971e-03
1.050353682677618735e+03 1.000000000000000021e-02
1.087635192492222814e+03 1.778279410038922925e-02
1.122634641282145367e+03 3.162277660168379134e-02
1.157806474008697933e+03 5.623413251903491145e-02
1.195626401363741934e+03 1.000000000000000056e-01
1.238316934788825620e+03 1.778279410038922925e-01
1.287687534955795627e+03 3.162277660168379412e-01
1.348320765440054856e+03 5.623413251903490728e-01
1.427862063080024882e+03 1.000000000000000000e+00
1.537889236039644175e+03 1.778279410038922759e+00
1.680995071100989662e+03 3.162277660168379523e+00
1.875672520027384962e+03 5.623413251903491172e+00
2.145104226757992365e+03 1.000000000000000000e+01
2.452710956589770376e+03 1.778279410038922848e+01
2.767714885559055347e+03 3.162277660168379256e+01
3.086211934402781935e+03 5.623413251903490817e+01
3.409263240487005078e+03 1.000000000000000000e+02
3.740616021845649357e+03 1.778279410038922776e+02
4.093060934665783407e+03 3.162277660168379612e+02
