# Temperature (K), Pressure (bars)
2.120847295378462150e+03 9.999999999999999547e-07
2.133101892435479840e+03 1.778279410038922901e-06
2.145356489492497531e+03 3.162277660168379191e-06
2.165941981016616410e+03 5.623413251903491208e-06
2.190845601408782386e+03 1.000000000000000082e-05
2.218069131515610934e+03 1.778279410038922901e-05
2.249244316409316525e+03 3.162277660168379530e-05
2.284937112966401855e+03 5.623413251903490700e-05
2.325437401949577634e+03 1.000000000000000048e-04
2.368739305989075092e+03 1.778279410038922698e-04
2.411813707909130699e+03 3.162277660168379394e-04
2.452720558788061226e+03 5.623413251903490971e-04
2.490025666450449080e+03 1.000000000000000021e-03
2.522863357728893334e+03 1.778279410038922752e-03
2.551743878218388545e+03 3.162277660168379394e-03
2.579197357571090834e+03 5.623413251903490971e-03
2.609446332666158469e+03 1.000000000000000021e-02
2.647722296331548932e+03 1.778279410038922925e-02
2.699724512861974745e+03 3.162277660168379134e-02
2.785496818851854187e+03 5.623413251903491145e-02
2.915686663235346714e+03 1.000000000000000056e-01
3.066597825497582562e+03 1.778279410038922925e-01
3.227732077737027794e+03 3.162277660168379412e-01
3.407068086337502336e+03 5.623413251903490728e-01
3.606345756165890634e+03 1.000000000000000000e+00
3.826565281965586109e+03 1.778279410038922759e+00
4.070401259437622684e+03 3.162277660168379523e+00
4.343756461626940109e+03 5.623413251903491172e+00
4.656091613655269612e+03 1.000000000000000000e+01
5.019308139933888924e+03 1.778279410038922848e+01
5.457362692187304674e+03 3.162277660168379256e+01
6.003011095883136477e+03 5.623413251903490817e+01
6.712283569247860214e+03 1.000000000000000000e+02
7.682113033006126898e+03 1.778279410038922776e+02
9.046820811559324284e+03 3.162277660168379612e+02
