# Temperature (K), Pressure (bars)
1.006947121216463756e+03 3.162277660168379394e-03
1.051496809451987247e+03 5.623413251903490971e-03
1.096046498017625026e+03 1.000000000000000021e-02
1.138488540713924522e+03 1.778279410038922925e-02
1.181191450448319301e+03 3.162277660168379134e-02
1.226388886820000835e+03 5.623413251903491145e-02
1.274495216067076171e+03 1.000000000000000056e-01
1.325798477300092145e+03 1.778279410038922925e-01
1.389840502063987060e+03 3.162277660168379412e-01
1.480758130538547675e+03 5.623413251903490728e-01
1.607840929189722146e+03 1.000000000000000000e+00
1.764881435525243205e+03 1.778279410038922759e+00
1.966885318801524136e+03 3.162277660168379523e+00
2.240713481433162997e+03 5.623413251903491172e+00
2.544472169126217068e+03 1.000000000000000000e+01
2.840449046665306469e+03 1.778279410038922848e+01
3.137096710731982967e+03 3.162277660168379256e+01
3.436945330911393285e+03 5.623413251903490817e+01
3.747542357397079286e+03 1.000000000000000000e+02
4.074476346481198561e+03 1.778279410038922776e+02
4.431743002497080852e+03 3.162277660168379612e+02
