# Temperature (K), Pressure (bars)
1.925019486864192913e+03 9.999999999999999547e-07
1.931648507207024750e+03 1.778279410038922901e-06
1.938277527552466154e+03 3.162277660168379191e-06
1.953648389757166115e+03 5.623413251903491208e-06
1.978853998906937932e+03 1.000000000000000082e-05
2.014511923163786150e+03 1.778279410038922901e-05
2.057844260638305059e+03 3.162277660168379530e-05
2.103323002589773296e+03 5.623413251903490700e-05
2.147609642489910584e+03 1.000000000000000048e-04
2.188347561982181560e+03 1.778279410038922698e-04
2.224379361925713511e+03 3.162277660168379394e-04
2.256395357055938348e+03 5.623413251903490971e-04
2.286005664589283697e+03 1.000000000000000021e-03
2.315028116960464104e+03 1.778279410038922752e-03
2.345076024955033063e+03 3.162277660168379394e-03
2.378840328403993226e+03 5.623413251903490971e-03
2.417878806499663369e+03 1.000000000000000021e-02
2.467091265354844381e+03 1.778279410038922925e-02
2.525560037926714358e+03 3.162277660168379134e-02
2.609041322918731112e+03 5.623413251903491145e-02
2.740978014381053981e+03 1.000000000000000056e-01
2.895491006032533733e+03 1.778279410038922925e-01
3.053946209295406334e+03 3.162277660168379412e-01
3.226343014818131451e+03 5.623413251903490728e-01
3.414240990375602905e+03 1.000000000000000000e+00
3.618074601947710107e+03 1.778279410038922759e+00
3.839433372591174702e+03 3.162277660168379523e+00
4.082243301400678774e+03 5.623413251903491172e+00
4.352628639979682703e+03 1.000000000000000000e+01
4.658808212492476741e+03 1.778279410038922848e+01
5.013928678958709497e+03 3.162277660168379256e+01
5.432257813690258445e+03 5.623413251903490817e+01
5.935974913519899019e+03 1.000000000000000000e+02
6.558089002842204536e+03 1.778279410038922776e+02
7.352639289139325228e+03 3.162277660168379612e+02
