# Temperature (K), Pressure (bars)
9.449954093935568835e+02 1.000000000000000021e-03
9.925048727270425388e+02 1.778279410038922752e-03
1.040014337506917173e+03 3.162277660168379394e-03
1.086825987926963080e+03 5.623413251903490971e-03
1.133989416645925303e+03 1.000000000000000021e-02
1.182397042983181564e+03 1.778279410038922925e-02
1.233012231386698659e+03 3.162277660168379134e-02
1.287058754147507670e+03 5.623413251903491145e-02
1.349989870664574255e+03 1.000000000000000056e-01
1.432759989923622015e+03 1.778279410038922925e-01
1.542297516603808845e+03 3.162277660168379412e-01
1.683412878258155160e+03 5.623413251903490728e-01
1.852229215854553331e+03 1.000000000000000000e+00
2.067725695336596800e+03 1.778279410038922759e+00
2.346711158251088818e+03 3.162277660168379523e+00
2.638617760412495500e+03 5.623413251903491172e+00
2.912876475423088777e+03 1.000000000000000000e+01
3.183240778359322576e+03 1.778279410038922848e+01
3.458669786669752739e+03 3.162277660168379256e+01
3.746104528768817090e+03 5.623413251903490817e+01
4.053127021563353082e+03 1.000000000000000000e+02
4.383728549667112020e+03 1.778279410038922776e+02
4.753656929377858432e+03 3.162277660168379612e+02
