# Temperature (K), Pressure (bars)
9.713859916890664863e+02 3.162277660168379394e-03
1.019105179684482891e+03 5.623413251903490971e-03
1.066824368796942281e+03 1.000000000000000021e-02
1.113522798791619834e+03 1.778279410038922925e-02
1.159869602863442651e+03 3.162277660168379134e-02
1.207734134672666642e+03 5.623413251903491145e-02
1.259104749199548678e+03 1.000000000000000056e-01
1.317323163841590258e+03 1.778279410038922925e-01
1.391305277338574342e+03 3.162277660168379412e-01
1.494342809975674527e+03 5.623413251903490728e-01
1.635141681627727621e+03 1.000000000000000000e+00
1.812811388595836661e+03 1.778279410038922759e+00
2.044295159115366005e+03 3.162277660168379523e+00
2.334326425944801485e+03 5.623413251903491172e+00
2.636685094478671090e+03 1.000000000000000000e+01
2.927380198293643389e+03 1.778279410038922848e+01
3.218193609408543580e+03 3.162277660168379256e+01
3.514058219172786721e+03 5.623413251903490817e+01
3.822891480858382238e+03 1.000000000000000000e+02
4.149845308124758049e+03 1.778279410038922776e+02
4.509428369271338852e+03 3.162277660168379612e+02
