# Temperature (K), Pressure (bars)
1.266875248032398304e+03 1.000000000000000082e-05
1.301409834223784173e+03 1.778279410038922901e-05
1.335944423226239451e+03 3.162277660168379530e-05
1.374142115486625016e+03 5.623413251903490700e-05
1.414924041309916902e+03 1.000000000000000048e-04
1.467386973342304145e+03 1.778279410038922698e-04
1.548634363229037945e+03 3.162277660168379394e-04
1.627843552385865678e+03 5.623413251903490971e-04
1.683413312280607443e+03 1.000000000000000021e-03
1.732952267015492453e+03 1.778279410038922752e-03
1.783865752420413173e+03 3.162277660168379394e-03
1.838027286677815027e+03 5.623413251903490971e-03
1.895523975888687346e+03 1.000000000000000021e-02
1.956808276564002654e+03 1.778279410038922925e-02
2.024276286614683613e+03 3.162277660168379134e-02
2.105260448744532368e+03 5.623413251903491145e-02
2.199567502488053833e+03 1.000000000000000056e-01
2.329707806138779688e+03 1.778279410038922925e-01
2.521064025540826151e+03 3.162277660168379412e-01
2.727536464433585024e+03 5.623413251903490728e-01
2.921422397712555266e+03 1.000000000000000000e+00
3.119421719222051252e+03 1.778279410038922759e+00
3.325783615979436945e+03 3.162277660168379523e+00
3.543281600366125531e+03 5.623413251903491172e+00
3.775755942684485944e+03 1.000000000000000000e+01
4.028346540316848404e+03 1.778279410038922848e+01
4.308708292780957890e+03 3.162277660168379256e+01
4.623155021190166735e+03 5.623413251903490817e+01
4.980213028904082421e+03 1.000000000000000000e+02
5.383816858333353593e+03 1.778279410038922776e+02
5.861625442525874860e+03 3.162277660168379612e+02
