# Temperature (K), Pressure (bars)
1.727916483179462375e+03 9.999999999999999547e-07
1.744726442104629314e+03 1.778279410038922901e-06
1.761536401036109055e+03 3.162277660168379191e-06
1.784497034273703321e+03 5.623413251903491208e-06
1.818055833726727087e+03 1.000000000000000082e-05
1.856491301597046913e+03 1.778279410038922901e-05
1.895430408188081174e+03 3.162277660168379530e-05
1.934576760486869716e+03 5.623413251903490700e-05
1.972602931597987663e+03 1.000000000000000048e-04
2.010734401292697839e+03 1.778279410038922698e-04
2.050680730817096446e+03 3.162277660168379394e-04
2.092945308343495071e+03 5.623413251903490971e-04
2.138762918881584937e+03 1.000000000000000021e-03
2.188508037891762797e+03 1.778279410038922752e-03
2.244927969004414990e+03 3.162277660168379394e-03
2.308778420571262359e+03 5.623413251903490971e-03
2.390994219091289779e+03 1.000000000000000021e-02
2.505345492067256600e+03 1.778279410038922925e-02
2.635902298349714783e+03 3.162277660168379134e-02
2.771297373777838857e+03 5.623413251903491145e-02
2.917519567384622860e+03 1.000000000000000056e-01
3.076895946711585566e+03 1.778279410038922925e-01
3.251158857258534226e+03 3.162277660168379412e-01
3.440604670000547230e+03 5.623413251903490728e-01
3.645452140500170572e+03 1.000000000000000000e+00
3.868271589326012872e+03 1.778279410038922759e+00
4.114497414246805420e+03 3.162277660168379523e+00
4.392028277494146096e+03 5.623413251903491172e+00
4.711756170698034111e+03 1.000000000000000000e+01
5.088727925875235087e+03 1.778279410038922848e+01
5.548567774954338347e+03 3.162277660168379256e+01
6.130777211516246098e+03 5.623413251903490817e+01
6.905347897134147388e+03 1.000000000000000000e+02
7.986930925096588908e+03 1.778279410038922776e+02
9.509254085878172191e+03 3.162277660168379612e+02
