# Temperature (K), Pressure (bars)
8.950872741876072496e+02 3.162277660168379394e-04
9.448461947808364130e+02 5.623413251903490971e-04
9.946051168553661910e+02 1.000000000000000021e-03
1.043489761891295984e+03 1.778279410038922752e-03
1.092663875184151721e+03 3.162277660168379394e-03
1.143031479178391692e+03 5.623413251903490971e-03
1.195288396002376430e+03 1.000000000000000021e-02
1.250491208353942284e+03 1.778279410038922925e-02
1.313075670332295431e+03 3.162277660168379134e-02
1.394414952518425935e+03 5.623413251903491145e-02
1.506638419792052218e+03 1.000000000000000056e-01
1.653454710183018278e+03 1.778279410038922925e-01
1.831243595786026845e+03 3.162277660168379412e-01
2.053417439725219538e+03 5.623413251903490728e-01
2.318658444471185703e+03 1.000000000000000000e+00
2.582763649896508014e+03 1.778279410038922759e+00
2.827852826435096631e+03 3.162277660168379523e+00
3.066730755429019155e+03 5.623413251903491172e+00
3.306776754511223771e+03 1.000000000000000000e+01
3.555073924681418703e+03 1.778279410038922848e+01
3.820265684509268794e+03 3.162277660168379256e+01
4.107742196193014934e+03 5.623413251903490817e+01
4.424216703325983872e+03 1.000000000000000000e+02
4.772929958375980277e+03 1.778279410038922776e+02
5.172303165810722021e+03 3.162277660168379612e+02
