# Temperature (K), Pressure (bars)
8.800259367379296691e+02 3.162277660168379530e-05
9.301277050582076527e+02 5.623413251903490700e-05
9.802535769248736415e+02 1.000000000000000048e-04
1.030230907944400769e+03 1.778279410038922698e-04
1.080633044811983382e+03 3.162277660168379394e-04
1.132500502084694062e+03 5.623413251903490971e-04
1.186657766052450825e+03 1.000000000000000021e-03
1.244354428064943477e+03 1.778279410038922752e-03
1.308048650356663074e+03 3.162277660168379394e-03
1.382779124608819984e+03 5.623413251903490971e-03
1.481243159425795056e+03 1.000000000000000021e-02
1.612426264662709400e+03 1.778279410038922925e-02
1.795598419165680752e+03 3.162277660168379134e-02
2.032804128314124682e+03 5.623413251903491145e-02
2.270056412983822156e+03 1.000000000000000056e-01
2.480397650913071629e+03 1.778279410038922925e-01
2.677347646919492036e+03 3.162277660168379412e-01
2.867886552243976439e+03 5.623413251903490728e-01
3.057402202520778701e+03 1.000000000000000000e+00
3.250680498946963326e+03 1.778279410038922759e+00
3.452614388477649300e+03 3.162277660168379523e+00
3.668028393502053405e+03 5.623413251903491172e+00
3.901705249199392711e+03 1.000000000000000000e+01
4.158805445796800996e+03 1.778279410038922848e+01
4.445411650662080319e+03 3.162277660168379256e+01
4.769552486810853225e+03 5.623413251903490817e+01
5.146349941824998496e+03 1.000000000000000000e+02
5.584498140369189969e+03 1.778279410038922776e+02
6.102316763508067197e+03 3.162277660168379612e+02
