# Temperature (K), Pressure (bars)
1.157496107036243757e+03 1.778279410038922901e-05
1.205863790883249976e+03 3.162277660168379530e-05
1.254231478417345897e+03 5.623413251903490700e-05
1.316088302404875094e+03 1.000000000000000048e-04
1.375462237841601109e+03 1.778279410038922698e-04
1.427838780353060883e+03 3.162277660168379394e-04
1.476081020834129504e+03 5.623413251903490971e-04
1.534344307389896130e+03 1.000000000000000021e-03
1.621259249665120478e+03 1.778279410038922752e-03
1.705544299729394879e+03 3.162277660168379394e-03
1.765801855152779581e+03 5.623413251903490971e-03
1.822745463542508105e+03 1.000000000000000021e-02
1.882223481751421332e+03 1.778279410038922925e-02
1.943843658389856955e+03 3.162277660168379134e-02
2.012701297276428022e+03 5.623413251903491145e-02
2.097416527978754402e+03 1.000000000000000056e-01
2.198628761679319268e+03 1.778279410038922925e-01
2.339170903772769179e+03 3.162277660168379412e-01
2.543241514645668303e+03 5.623413251903490728e-01
2.763372035708295698e+03 1.000000000000000000e+00
2.970601429823951548e+03 1.778279410038922759e+00
3.181151909219267964e+03 3.162277660168379523e+00
3.400148362248386093e+03 5.623413251903491172e+00
3.631389661989266187e+03 1.000000000000000000e+01
3.879559338325550925e+03 1.778279410038922848e+01
4.151928571712592202e+03 3.162277660168379256e+01
4.454413674443369018e+03 5.623413251903490817e+01
4.794652391851419452e+03 1.000000000000000000e+02
5.176467998921081744e+03 1.778279410038922776e+02
5.622708156365997638e+03 3.162277660168379612e+02
