# Temperature (K), Pressure (bars)
8.613849642877092947e+02 3.162277660168379530e-05
9.168904419252393154e+02 5.623413251903490700e-05
9.723959192557323377e+02 1.000000000000000048e-04
1.022876187662039115e+03 1.778279410038922698e-04
1.074436599866543929e+03 3.162277660168379394e-04
1.132043207279668195e+03 5.623413251903490971e-04
1.190196982566268161e+03 1.000000000000000021e-03
1.239787982145798651e+03 1.778279410038922752e-03
1.279665626031229294e+03 3.162277660168379394e-03
1.318098453219462499e+03 5.623413251903490971e-03
1.363275684329827300e+03 1.000000000000000021e-02
1.416615994262594313e+03 1.778279410038922925e-02
1.511914327082105729e+03 3.162277660168379134e-02
1.682470793974609705e+03 5.623413251903491145e-02
1.901113990182074303e+03 1.000000000000000056e-01
2.137844691404905006e+03 1.778279410038922925e-01
2.372035905518217987e+03 3.162277660168379412e-01
2.591029701672397550e+03 5.623413251903490728e-01
2.801608081718294216e+03 1.000000000000000000e+00
3.009785469493252094e+03 1.778279410038922759e+00
3.220388008539242946e+03 3.162277660168379523e+00
3.438152925395620969e+03 5.623413251903491172e+00
3.668326337964410868e+03 1.000000000000000000e+01
3.916460519641622795e+03 1.778279410038922848e+01
4.190429308531375682e+03 3.162277660168379256e+01
4.495478134030087858e+03 5.623413251903490817e+01
4.839307608540978435e+03 1.000000000000000000e+02
5.225695357407825213e+03 1.778279410038922776e+02
5.677834610041431006e+03 3.162277660168379612e+02
