# Temperature (K), Pressure (bars)
7.966302733402329750e+02 3.162277660168379394e-04
8.420093590247529391e+02 5.623413251903490971e-04
8.873884459549562962e+02 1.000000000000000021e-03
9.320083561355185111e+02 1.778279410038922752e-03
9.766186706674847073e+02 3.162277660168379394e-03
1.022467761797531239e+03 5.623413251903490971e-03
1.070336049136174324e+03 1.000000000000000021e-02
1.123611038979654722e+03 1.778279410038922925e-02
1.186153586885423692e+03 3.162277660168379134e-02
1.266166843204060797e+03 5.623413251903491145e-02
1.366722287055102242e+03 1.000000000000000056e-01
1.517039138292720509e+03 1.778279410038922925e-01
1.748717528886329092e+03 3.162277660168379412e-01
2.018596876026036853e+03 5.623413251903490728e-01
2.286538186177114767e+03 1.000000000000000000e+00
2.547442753098279354e+03 1.778279410038922759e+00
2.796170581027702610e+03 3.162277660168379523e+00
3.037333970591128491e+03 5.623413251903491172e+00
3.278370485569562788e+03 1.000000000000000000e+01
3.526903724071305987e+03 1.778279410038922848e+01
3.791893040267001652e+03 3.162277660168379256e+01
4.078382560505161564e+03 5.623413251903490817e+01
4.393002152227689294e+03 1.000000000000000000e+02
4.738854192708465234e+03 1.778279410038922776e+02
5.134177657735146568e+03 3.162277660168379612e+02
