# Temperature (K), Pressure (bars)
9.623045180816935726e+02 3.162277660168379530e-05
1.008633361500034539e+03 5.623413251903490700e-05
1.054962207015216336e+03 1.000000000000000048e-04
1.102905953460780893e+03 1.778279410038922698e-04
1.152438546121413083e+03 3.162277660168379394e-04
1.204131626487512904e+03 5.623413251903490971e-04
1.258254793023433194e+03 1.000000000000000021e-03
1.315110026090538213e+03 1.778279410038922752e-03
1.376014316122424589e+03 3.162277660168379394e-03
1.444279458459273428e+03 5.623413251903490971e-03
1.524744184579195462e+03 1.000000000000000021e-02
1.624174720751376071e+03 1.778279410038922925e-02
1.745071839869594442e+03 3.162277660168379134e-02
1.912927968990681393e+03 5.623413251903491145e-02
2.139839242061535970e+03 1.000000000000000056e-01
2.370358019254324972e+03 1.778279410038922925e-01
2.576002083522750127e+03 3.162277660168379412e-01
2.772622203833079766e+03 5.623413251903490728e-01
2.967276074718873133e+03 1.000000000000000000e+00
3.164774132989276950e+03 1.778279410038922759e+00
3.369154632583456078e+03 3.162277660168379523e+00
3.584797739617986736e+03 5.623413251903491172e+00
3.816533893781021106e+03 1.000000000000000000e+01
4.069682729255777303e+03 1.778279410038922848e+01
4.352350116302512106e+03 3.162277660168379256e+01
4.670313876868113766e+03 5.623413251903490817e+01
5.032377768267097963e+03 1.000000000000000000e+02
5.442646649986130797e+03 1.778279410038922776e+02
5.930100464467725033e+03 3.162277660168379612e+02
