# Temperature (K), Pressure (bars)
1.525822079398103597e+03 9.999999999999999547e-07
1.526706499482952040e+03 1.778279410038922901e-06
1.527590919629555174e+03 3.162277660168379191e-06
1.534408728858084714e+03 5.623413251903491208e-06
1.547766666409725531e+03 1.000000000000000082e-05
1.566663642284404432e+03 1.778279410038922901e-05
1.591573491408110840e+03 3.162277660168379530e-05
1.622333725689848507e+03 5.623413251903490700e-05
1.658020841387838118e+03 1.000000000000000048e-04
1.698928918293308470e+03 1.778279410038922698e-04
1.744063284455202847e+03 3.162277660168379394e-04
1.792444527450928717e+03 5.623413251903490971e-04
1.845390733547207674e+03 1.000000000000000021e-03
1.902363753501818564e+03 1.778279410038922752e-03
1.963095373442570008e+03 3.162277660168379394e-03
2.028118310249423530e+03 5.623413251903490971e-03
2.101874717628443250e+03 1.000000000000000021e-02
2.182981543164898994e+03 1.778279410038922925e-02
2.287969452620804987e+03 3.162277660168379134e-02
2.438807803831948604e+03 5.623413251903491145e-02
2.604173100070395776e+03 1.000000000000000056e-01
2.763402988333545181e+03 1.778279410038922925e-01
2.928324645189193234e+03 3.162277660168379412e-01
3.102416004367752066e+03 5.623413251903490728e-01
3.287631561672413682e+03 1.000000000000000000e+00
3.485072049692324981e+03 1.778279410038922759e+00
3.696731456530716969e+03 3.162277660168379523e+00
3.926450871595148783e+03 5.623413251903491172e+00
4.179530173329681929e+03 1.000000000000000000e+01
4.462613680225962526e+03 1.778279410038922848e+01
4.784278725155328175e+03 3.162277660168379256e+01
5.159522905689369509e+03 5.623413251903490817e+01
5.601112608259671106e+03 1.000000000000000000e+02
6.131025740121383933e+03 1.778279410038922776e+02
6.783144791549023466e+03 3.162277660168379612e+02
