# Temperature (K), Pressure (bars)
9.361886563813752673e+02 5.623413251903491208e-06
9.904621456926018936e+02 1.000000000000000082e-05
1.044784047570615030e+03 1.778279410038922901e-05
1.097715240145523921e+03 3.162277660168379530e-05
1.150626074605860367e+03 5.623413251903490700e-05
1.205498148025246792e+03 1.000000000000000048e-04
1.263157779221912506e+03 1.778279410038922698e-04
1.325810440001127972e+03 3.162277660168379394e-04
1.396057793770341959e+03 5.623413251903490971e-04
1.478306878681383296e+03 1.000000000000000021e-03
1.575927872810082590e+03 1.778279410038922752e-03
1.702936458379504529e+03 3.162277660168379394e-03
1.880515602421975018e+03 5.623413251903490971e-03
2.089419201911276559e+03 1.000000000000000021e-02
2.291409982248248070e+03 1.778279410038922925e-02
2.477571902373687408e+03 3.162277660168379134e-02
2.654188780155191125e+03 5.623413251903491145e-02
2.826492514428059167e+03 1.000000000000000056e-01
2.998313352122033393e+03 1.778279410038922925e-01
3.172713234060959621e+03 3.162277660168379412e-01
3.353076720847905563e+03 5.623413251903490728e-01
3.543669753340605439e+03 1.000000000000000000e+00
3.749262559838613470e+03 1.778279410038922759e+00
3.975013759489297627e+03 3.162277660168379523e+00
4.226925179042864329e+03 5.623413251903491172e+00
4.512587583749170335e+03 1.000000000000000000e+01
4.842571034331922419e+03 1.778279410038922848e+01
5.234366221892958492e+03 3.162277660168379256e+01
5.707513052771709226e+03 5.623413251903490817e+01
6.296046186581285838e+03 1.000000000000000000e+02
7.054322852941932979e+03 1.778279410038922776e+02
8.072780480011680083e+03 3.162277660168379612e+02
