# Temperature (K), Pressure (bars)
9.662901869195279687e+02 9.999999999999999547e-07
1.013679964352538377e+03 1.778279410038922901e-06
1.061069741785548786e+03 3.162277660168379191e-06
1.105591147303245407e+03 5.623413251903491208e-06
1.147805994315463522e+03 1.000000000000000082e-05
1.190890183932487844e+03 1.778279410038922901e-05
1.238144513807106478e+03 3.162277660168379530e-05
1.291058183049941363e+03 5.623413251903490700e-05
1.353846592467059281e+03 1.000000000000000048e-04
1.430283874883436283e+03 1.778279410038922698e-04
1.518462521153868693e+03 3.162277660168379394e-04
1.617844005507477050e+03 5.623413251903490971e-04
1.730120766665694646e+03 1.000000000000000021e-03
1.861671784824909764e+03 1.778279410038922752e-03
2.016570842425232513e+03 3.162277660168379394e-03
2.184128465553506885e+03 5.623413251903490971e-03
2.351441249632905510e+03 1.000000000000000021e-02
2.516173239934578760e+03 1.778279410038922925e-02
2.681333352366028066e+03 3.162277660168379134e-02
2.849672511842954464e+03 5.623413251903491145e-02
3.023291822752117241e+03 1.000000000000000056e-01
3.203427232042296509e+03 1.778279410038922925e-01
3.391476371630777521e+03 3.162277660168379412e-01
3.590759587661143541e+03 5.623413251903490728e-01
3.806698601730306564e+03 1.000000000000000000e+00
4.046241176692794397e+03 1.778279410038922759e+00
4.318386483051684081e+03 3.162277660168379523e+00
4.635735414389612743e+03 5.623413251903491172e+00
5.014779621665371451e+03 1.000000000000000000e+01
5.488674015320409126e+03 1.778279410038922848e+01
6.107499953360998006e+03 3.162277660168379256e+01
6.955485883758724412e+03 5.623413251903490817e+01
8.182038904589211597e+03 1.000000000000000000e+02
9.903317836630891179e+03 1.778279410038922776e+02
1.000000000000000000e+04 3.162277660168379612e+02
