# Temperature (K), Pressure (bars)
2.451915656303227479e+03 9.999999999999999547e-07
2.477332528404640470e+03 1.778279410038922901e-06
2.502749400506053917e+03 3.162277660168379191e-06
2.527792634147645458e+03 5.623413251903491208e-06
2.558773251892204826e+03 1.000000000000000082e-05
2.592397509429629281e+03 1.778279410038922901e-05
2.626375123551404158e+03 3.162277660168379530e-05
2.662978387857159305e+03 5.623413251903490700e-05
2.701934061996582841e+03 1.000000000000000048e-04
2.742868167085204732e+03 1.778279410038922698e-04
2.785431727656179646e+03 3.162277660168379394e-04
2.827903515695073111e+03 5.623413251903490971e-04
2.866626686265170520e+03 1.000000000000000021e-03
2.897769013257101051e+03 1.778279410038922752e-03
2.921434530805676332e+03 3.162277660168379394e-03
2.945854452130124173e+03 5.623413251903490971e-03
2.982693529750325979e+03 1.000000000000000021e-02
3.040311871962357600e+03 1.778279410038922925e-02
3.118062089373527670e+03 3.162277660168379134e-02
3.217766383523609875e+03 5.623413251903491145e-02
3.353863748522323476e+03 1.000000000000000056e-01
3.530394871914582382e+03 1.778279410038922925e-01
3.738159559302335765e+03 3.162277660168379412e-01
3.986862131512788892e+03 5.623413251903490728e-01
4.274510374383531598e+03 1.000000000000000000e+00
4.640060213736746846e+03 1.778279410038922759e+00
5.145206568055696152e+03 3.162277660168379523e+00
5.924796080781654382e+03 5.623413251903491172e+00
7.156597774615154776e+03 1.000000000000000000e+01
8.806138704304199564e+03 1.778279410038922848e+01
1.000000000000000000e+04 3.162277660168379256e+01
1.000000000000000000e+04 5.623413251903490817e+01
1.000000000000000000e+04 1.000000000000000000e+02
1.000000000000000000e+04 1.778279410038922776e+02
1.000000000000000000e+04 3.162277660168379612e+02
