# Temperature (K), Pressure (bars)
2.451888758187366875e+03 3.162277660168379191e-06
2.458695371019044615e+03 5.623413251903491208e-06
2.465501994149315124e+03 1.000000000000000082e-05
2.484537542628524079e+03 1.778279410038922901e-05
2.513992102003882337e+03 3.162277660168379530e-05
2.548495657209468391e+03 5.623413251903490700e-05
2.586248900261723520e+03 1.000000000000000048e-04
2.627745051392569621e+03 1.778279410038922698e-04
2.673413419530682859e+03 3.162277660168379394e-04
2.723073512917214430e+03 5.623413251903490971e-04
2.777569778608594333e+03 1.000000000000000021e-03
2.837682352750416158e+03 1.778279410038922752e-03
2.901805804128006002e+03 3.162277660168379394e-03
2.967140029765390864e+03 5.623413251903490971e-03
3.030109958158599966e+03 1.000000000000000021e-02
3.087901869617924149e+03 1.778279410038922925e-02
3.140265109517434212e+03 3.162277660168379134e-02
3.195127906990690462e+03 5.623413251903491145e-02
3.253661051463190233e+03 1.000000000000000056e-01
3.346008650738207962e+03 1.778279410038922925e-01
3.513428907005089968e+03 3.162277660168379412e-01
3.724974926952058013e+03 5.623413251903490728e-01
3.960543863435132607e+03 1.000000000000000000e+00
4.243274041929124905e+03 1.778279410038922759e+00
4.557493611247124136e+03 3.162277660168379523e+00
4.946625017029468836e+03 5.623413251903491172e+00
5.456936085987204933e+03 1.000000000000000000e+01
6.182563319390581455e+03 1.778279410038922848e+01
7.284833147937953072e+03 3.162277660168379256e+01
8.863219184549960119e+03 5.623413251903490817e+01
1.000000000000000000e+04 1.000000000000000000e+02
1.000000000000000000e+04 1.778279410038922776e+02
1.000000000000000000e+04 3.162277660168379612e+02
