# Temperature (K), Pressure (bars)
2.261742265327021869e+03 9.999999999999999547e-07
2.277034292754884973e+03 1.778279410038922901e-06
2.292326320182748532e+03 3.162277660168379191e-06
2.316853987987442906e+03 5.623413251903491208e-06
2.347680122352502622e+03 1.000000000000000082e-05
2.381538339313943197e+03 1.778279410038922901e-05
2.419277216252186918e+03 3.162277660168379530e-05
2.461876852847869031e+03 5.623413251903490700e-05
2.509225626942426516e+03 1.000000000000000048e-04
2.560829001245534073e+03 1.778279410038922698e-04
2.616651337396329836e+03 3.162277660168379394e-04
2.675116660942784620e+03 5.623413251903490971e-04
2.733796145367097324e+03 1.000000000000000021e-03
2.790410340552849902e+03 1.778279410038922752e-03
2.841232302466605688e+03 3.162277660168379394e-03
2.883587682390205373e+03 5.623413251903490971e-03
2.918437074217037207e+03 1.000000000000000021e-02
2.955501217987757627e+03 1.778279410038922925e-02
3.001319830272609124e+03 3.162277660168379134e-02
3.070675167737879292e+03 5.623413251903491145e-02
3.188678227079808039e+03 1.000000000000000056e-01
3.345646474876135926e+03 1.778279410038922925e-01
3.525950437734633852e+03 3.162277660168379412e-01
3.735468790639852159e+03 5.623413251903490728e-01
3.981262153255766407e+03 1.000000000000000000e+00
4.273465684821670038e+03 1.778279410038922759e+00
4.596945335240624445e+03 3.162277660168379523e+00
5.001547916351815729e+03 5.623413251903491172e+00
5.538627121205770891e+03 1.000000000000000000e+01
6.309398947688688168e+03 1.778279410038922848e+01
7.484220510938363077e+03 3.162277660168379256e+01
9.134595421501333476e+03 5.623413251903490817e+01
1.000000000000000000e+04 1.000000000000000000e+02
1.000000000000000000e+04 1.778279410038922776e+02
1.000000000000000000e+04 3.162277660168379612e+02
