# Temperature (K), Pressure (bars)
1.766271935461601970e+04 9.999999999999999547e-07
2.137501959579070535e+04 1.778279410038922901e-06
2.586211517604080291e+04 3.162277660168379191e-06
3.097107915097340810e+04 5.623413251903491208e-06
3.639510891143030312e+04 1.000000000000000082e-05
4.171462533979759610e+04 1.778279410038922901e-05
4.656947748485711054e+04 3.162277660168379530e-05
5.080480156339926907e+04 5.623413251903490700e-05
5.446581895304474892e+04 1.000000000000000048e-04
5.770579814739856374e+04 1.778279410038922698e-04
6.069132440008831327e+04 3.162277660168379394e-04
6.356238296601132606e+04 5.623413251903490971e-04
6.643060477889739559e+04 1.000000000000000021e-03
6.938107026748226781e+04 1.778279410038922752e-03
7.249534968325510272e+04 3.162277660168379394e-03
7.585096316479537927e+04 5.623413251903490971e-03
7.953829307447996689e+04 1.000000000000000021e-02
8.367281856797318324e+04 1.778279410038922925e-02
8.839952205862446863e+04 3.162277660168379134e-02
9.390901110920507926e+04 5.623413251903491145e-02
1.004569599337375694e+05 1.000000000000000056e-01
1.083727002280487359e+05 1.778279410038922925e-01
1.180916139291995496e+05 3.162277660168379412e-01
1.301763111440398498e+05 5.623413251903490728e-01
1.453387498057766934e+05 1.000000000000000000e+00
1.644996376175459009e+05 1.778279410038922759e+00
1.888009037235244177e+05 3.162277660168379523e+00
2.196839821083619900e+05 5.623413251903491172e+00
2.589049332098085433e+05 1.000000000000000000e+01
3.086139249339737580e+05 1.778279410038922848e+01
3.713798026635572896e+05 3.162277660168379256e+01
4.500954365499182604e+05 5.623413251903490817e+01
5.477211830832018750e+05 1.000000000000000000e+02
6.668588546244208701e+05 1.778279410038922776e+02
8.090436068107804749e+05 3.162277660168379612e+02
