# Temperature (K), Pressure (bars)
9.776947005355729061e+02 3.162277660168379394e-04
1.036833227463348976e+03 5.623413251903490971e-04
1.095971755696250739e+03 1.000000000000000021e-03
1.152629961707976236e+03 1.778279410038922752e-03
1.208673523546177421e+03 3.162277660168379394e-03
1.266055581450853197e+03 5.623413251903490971e-03
1.327560232021966158e+03 1.000000000000000021e-02
1.396470625054128504e+03 1.778279410038922925e-02
1.479299815225322618e+03 3.162277660168379134e-02
1.583415110800699267e+03 5.623413251903491145e-02
1.734508998989542306e+03 1.000000000000000056e-01
1.954945070712706638e+03 1.778279410038922925e-01
2.206680569917660705e+03 3.162277660168379412e-01
2.447557081742414539e+03 5.623413251903490728e-01
2.674119955058692540e+03 1.000000000000000000e+00
2.892125659004431782e+03 1.778279410038922759e+00
3.108252490530401246e+03 3.162277660168379523e+00
3.328498186034246373e+03 5.623413251903491172e+00
3.558511038407042633e+03 1.000000000000000000e+01
3.803974237338829425e+03 1.778279410038922848e+01
4.072780967164947015e+03 3.162277660168379256e+01
4.369877663622594810e+03 5.623413251903490817e+01
4.702394855386696690e+03 1.000000000000000000e+02
5.073962394222692637e+03 1.778279410038922776e+02
5.505963926865343637e+03 3.162277660168379612e+02
