# Temperature (K), Pressure (bars)
1.698775879719761406e+03 9.999999999999999547e-07
1.713569019491916151e+03 1.778279410038922901e-06
1.728362159264085676e+03 3.162277660168379191e-06
1.745673184524378257e+03 5.623413251903491208e-06
1.768294089285807786e+03 1.000000000000000082e-05
1.799516547186403614e+03 1.778279410038922901e-05
1.838927173769437331e+03 3.162277660168379530e-05
1.885109222392919719e+03 5.623413251903490700e-05
1.938216992229505422e+03 1.000000000000000048e-04
1.997160801276210350e+03 1.778279410038922698e-04
2.061118922701418796e+03 3.162277660168379394e-04
2.129163308173514906e+03 5.623413251903490971e-04
2.203312641825772516e+03 1.000000000000000021e-03
2.290907255097536108e+03 1.778279410038922752e-03
2.393189428235273226e+03 3.162277660168379394e-03
2.504896020119999321e+03 5.623413251903490971e-03
2.624184653132982021e+03 1.000000000000000021e-02
2.752170390466865229e+03 1.778279410038922925e-02
2.890253896392421666e+03 3.162277660168379134e-02
3.040220468864182294e+03 5.623413251903491145e-02
3.204606091466993348e+03 1.000000000000000056e-01
3.387016617879125988e+03 1.778279410038922925e-01
3.592108041462918663e+03 3.162277660168379412e-01
3.825336340346292673e+03 5.623413251903490728e-01
4.096267691485118121e+03 1.000000000000000000e+00
4.390384464521503105e+03 1.778279410038922759e+00
4.755489470721255202e+03 3.162277660168379523e+00
5.237480164873547437e+03 5.623413251903491172e+00
5.928395945389160261e+03 1.000000000000000000e+01
6.962722254451951812e+03 1.778279410038922848e+01
8.477416279199891505e+03 3.162277660168379256e+01
1.036091926245278228e+04 5.623413251903490817e+01
1.260495752579896907e+04 1.000000000000000000e+02
1.534299135682696033e+04 1.778279410038922776e+02
1.860656296247837236e+04 3.162277660168379612e+02
