# Temperature (K), Pressure (bars)
1.091290320096838514e+03 9.999999999999999547e-07
1.101356831927178291e+03 1.778279410038922901e-06
1.111423343762063723e+03 3.162277660168379191e-06
1.127098256632667244e+03 5.623413251903491208e-06
1.148774447233513229e+03 1.000000000000000082e-05
1.176136491392199787e+03 1.778279410038922901e-05
1.209785402088618639e+03 3.162277660168379530e-05
1.248272188289895894e+03 5.623413251903490700e-05
1.290418315452104707e+03 1.000000000000000048e-04
1.336675937195715505e+03 1.778279410038922698e-04
1.388679201172596322e+03 3.162277660168379394e-04
1.448190883100167639e+03 5.623413251903490971e-04
1.515552932827936729e+03 1.000000000000000021e-03
1.591753466370074420e+03 1.778279410038922752e-03
1.674401305312526119e+03 3.162277660168379394e-03
1.772817194418709732e+03 5.623413251903490971e-03
1.893091734142919449e+03 1.000000000000000021e-02
2.035624580241175636e+03 1.778279410038922925e-02
2.209622282915352116e+03 3.162277660168379134e-02
2.392114295105870497e+03 5.623413251903491145e-02
2.564146893767117035e+03 1.000000000000000056e-01
2.734302247648790399e+03 1.778279410038922925e-01
2.906956363790704472e+03 3.162277660168379412e-01
3.085246879038574207e+03 5.623413251903490728e-01
3.271373687194455670e+03 1.000000000000000000e+00
3.467467456751148347e+03 1.778279410038922759e+00
3.676755159930766240e+03 3.162277660168379523e+00
3.903706974615754916e+03 5.623413251903491172e+00
4.153636321642587973e+03 1.000000000000000000e+01
4.432901888003816566e+03 1.778279410038922848e+01
4.749826287547984975e+03 3.162277660168379256e+01
5.118940731675485949e+03 5.623413251903490817e+01
5.551647676698041323e+03 1.000000000000000000e+02
6.068322195884366010e+03 1.778279410038922776e+02
6.698731099083522167e+03 3.162277660168379612e+02
