# Temperature (K), Pressure (bars)
9.416726400119266600e+02 5.623413251903490700e-05
9.975558564065539713e+02 1.000000000000000048e-04
1.053439073385951588e+03 1.778279410038922698e-04
1.104907503482535503e+03 3.162277660168379394e-04
1.147467173181862108e+03 5.623413251903490971e-04
1.184008245043459056e+03 1.000000000000000021e-03
1.217884748791768061e+03 1.778279410038922752e-03
1.270407396676344433e+03 3.162277660168379394e-03
1.358401758128270558e+03 5.623413251903490971e-03
1.478531044195863160e+03 1.000000000000000021e-02
1.618272481153672288e+03 1.778279410038922925e-02
1.732090389122636225e+03 3.162277660168379134e-02
1.814588310676369019e+03 5.623413251903491145e-02
1.893011064894097217e+03 1.000000000000000056e-01
1.981236662105981395e+03 1.778279410038922925e-01
2.083691250920038328e+03 3.162277660168379412e-01
2.221836842759275896e+03 5.623413251903490728e-01
2.430586427089775498e+03 1.000000000000000000e+00
2.672330462181628718e+03 1.778279410038922759e+00
2.906711567466052202e+03 3.162277660168379523e+00
3.139793884018470635e+03 5.623413251903491172e+00
3.377184500264773305e+03 1.000000000000000000e+01
3.624803552937716631e+03 1.778279410038922848e+01
3.890510790339295454e+03 3.162277660168379256e+01
4.180069320467508078e+03 5.623413251903490817e+01
4.500328222541742434e+03 1.000000000000000000e+02
4.854489390799455578e+03 1.778279410038922776e+02
5.261699765037627913e+03 3.162277660168379612e+02
