# Temperature (K), Pressure (bars)
1.342715015258926542e+03 9.999999999999999547e-07
1.369259300826879553e+03 1.778279410038922901e-06
1.395803586395167031e+03 3.162277660168379191e-06
1.427195944302287671e+03 5.623413251903491208e-06
1.465068476301956252e+03 1.000000000000000082e-05
1.510716165237598034e+03 1.778279410038922901e-05
1.565566758450180487e+03 3.162277660168379530e-05
1.631169905377963687e+03 5.623413251903490700e-05
1.702562492583325820e+03 1.000000000000000048e-04
1.775183981939908335e+03 1.778279410038922698e-04
1.852500711437576228e+03 3.162277660168379394e-04
1.936140880064800058e+03 5.623413251903490971e-04
2.032062242051488511e+03 1.000000000000000021e-03
2.149801905119481944e+03 1.778279410038922752e-03
2.281940003548033019e+03 3.162277660168379394e-03
2.417764242555920646e+03 5.623413251903490971e-03
2.557080747190567308e+03 1.000000000000000021e-02
2.701630663266709234e+03 1.778279410038922925e-02
2.853251203369278301e+03 3.162277660168379134e-02
3.014123334291908122e+03 5.623413251903491145e-02
3.187124903791622273e+03 1.000000000000000056e-01
3.375599888425952486e+03 1.778279410038922925e-01
3.582911967022800127e+03 3.162277660168379412e-01
3.813512346663034350e+03 5.623413251903490728e-01
4.075877458175784341e+03 1.000000000000000000e+00
4.385286402268829988e+03 1.778279410038922759e+00
4.748352139623622861e+03 3.162277660168379523e+00
5.226599127751147535e+03 5.623413251903491172e+00
5.910400862440559649e+03 1.000000000000000000e+01
6.932874434411022776e+03 1.778279410038922848e+01
8.434748139247672952e+03 3.162277660168379256e+01
1.030927251795243137e+04 5.623413251903490817e+01
1.254212477859941282e+04 1.000000000000000000e+02
1.526651015526516676e+04 1.778279410038922776e+02
1.851381362441188685e+04 3.162277660168379612e+02
