# Temperature (K), Pressure (bars)
1.048522031617696030e+03 1.000000000000000048e-04
1.096941335907473103e+03 1.778279410038922698e-04
1.145360642357953566e+03 3.162277660168379394e-04
1.195138870386226927e+03 5.623413251903490971e-04
1.247057809484411564e+03 1.000000000000000021e-03
1.300868631543144829e+03 1.778279410038922752e-03
1.356848929529128327e+03 3.162277660168379394e-03
1.416721230102836898e+03 5.623413251903490971e-03
1.482150263520357612e+03 1.000000000000000021e-02
1.556842911012593504e+03 1.778279410038922925e-02
1.647870027294794227e+03 3.162277660168379134e-02
1.763637476808827159e+03 5.623413251903491145e-02
1.922623300330292523e+03 1.000000000000000056e-01
2.132086404606700398e+03 1.778279410038922925e-01
2.360724311446747379e+03 3.162277660168379412e-01
2.579816661851944900e+03 5.623413251903490728e-01
2.789179478266623391e+03 1.000000000000000000e+00
2.996093184277905948e+03 1.778279410038922759e+00
3.206161248280880500e+03 3.162277660168379523e+00
3.423930505514710148e+03 5.623413251903491172e+00
3.654007293364099041e+03 1.000000000000000000e+01
3.901616943179942155e+03 1.778279410038922848e+01
4.174455034757328576e+03 3.162277660168379256e+01
4.477915764521397250e+03 5.623413251903490817e+01
4.819726882714099702e+03 1.000000000000000000e+02
5.203681178020354309e+03 1.778279410038922776e+02
5.653193442551693806e+03 3.162277660168379612e+02
