# Temperature (K), Pressure (bars)
8.811316034595137126e+02 3.162277660168379530e-05
9.219301452931281347e+02 5.623413251903490700e-05
9.627344690798004194e+02 1.000000000000000048e-04
1.006001726448267391e+03 1.778279410038922698e-04
1.052226614394720400e+03 3.162277660168379394e-04
1.100707345107387027e+03 5.623413251903490971e-04
1.150956502703045771e+03 1.000000000000000021e-03
1.203300466745114818e+03 1.778279410038922752e-03
1.258715295142078048e+03 3.162277660168379394e-03
1.321480735362410087e+03 5.623413251903490971e-03
1.409086986241306931e+03 1.000000000000000021e-02
1.565136323695629926e+03 1.778279410038922925e-02
1.797787884340754772e+03 3.162277660168379134e-02
2.047188679851401957e+03 5.623413251903491145e-02
2.275923422750783629e+03 1.000000000000000056e-01
2.486351902556305504e+03 1.778279410038922925e-01
2.683634375433466630e+03 3.162277660168379412e-01
2.874399943525447270e+03 5.623413251903490728e-01
3.063943646634969355e+03 1.000000000000000000e+00
3.257192309778551135e+03 1.778279410038922759e+00
3.459201024597064134e+03 3.162277660168379523e+00
3.674829004492142758e+03 5.623413251903491172e+00
3.908849011460062684e+03 1.000000000000000000e+01
4.166439960326184519e+03 1.778279410038922848e+01
4.453738361706848991e+03 3.162277660168379256e+01
4.778828308240711522e+03 5.623413251903490817e+01
5.156833606776798661e+03 1.000000000000000000e+02
5.596546669268468577e+03 1.778279410038922776e+02
6.116191525187949992e+03 3.162277660168379612e+02
