# Temperature (K), Pressure (bars)
1.063304436654927486e+03 5.623413251903491208e-06
1.115330505857342359e+03 1.000000000000000082e-05
1.167626648346922366e+03 1.778279410038922901e-05
1.225526218771618232e+03 3.162277660168379530e-05
1.287434993478698516e+03 5.623413251903490700e-05
1.348005115444127568e+03 1.000000000000000048e-04
1.408188559200041254e+03 1.778279410038922698e-04
1.473197775322387770e+03 3.162277660168379394e-04
1.548444138695109359e+03 5.623413251903490971e-04
1.627759510262968433e+03 1.000000000000000021e-03
1.716003501452011506e+03 1.778279410038922752e-03
1.826785804757658752e+03 3.162277660168379394e-03
1.937414306579412596e+03 5.623413251903490971e-03
2.031475839923275316e+03 1.000000000000000021e-02
2.134947466267434720e+03 1.778279410038922925e-02
2.273241585927711640e+03 3.162277660168379134e-02
2.433201343283904407e+03 5.623413251903491145e-02
2.595032540124639127e+03 1.000000000000000056e-01
2.758867399463159927e+03 1.778279410038922925e-01
2.927882054021132717e+03 3.162277660168379412e-01
3.104610247679033819e+03 5.623413251903490728e-01
3.290888566937595897e+03 1.000000000000000000e+00
3.488370987788587172e+03 1.778279410038922759e+00
3.699732012654661958e+03 3.162277660168379523e+00
3.929161072767946280e+03 5.623413251903491172e+00
4.182036086775396143e+03 1.000000000000000000e+01
4.464921141970467943e+03 1.778279410038922848e+01
4.786426063840694951e+03 3.162277660168379256e+01
5.161474640542506677e+03 5.623413251903490817e+01
5.602289220757021212e+03 1.000000000000000000e+02
6.129875720403701052e+03 1.778279410038922776e+02
6.774203619053338116e+03 3.162277660168379612e+02
