# Temperature (K), Pressure (bars)
8.827513123557355357e+02 3.162277660168379530e-05
9.318198454018254324e+02 5.623413251903490700e-05
9.808883776201456612e+02 1.000000000000000048e-04
1.028809329465682367e+03 1.778279410038922698e-04
1.081393099934043676e+03 3.162277660168379394e-04
1.138541705762169840e+03 5.623413251903490971e-04
1.193907364138693993e+03 1.000000000000000021e-03
1.240414894634737038e+03 1.778279410038922752e-03
1.278267870704302140e+03 3.162277660168379394e-03
1.315110285677382535e+03 5.623413251903490971e-03
1.359157996435625819e+03 1.000000000000000021e-02
1.409051636133154716e+03 1.778279410038922925e-02
1.479863652604280105e+03 3.162277660168379134e-02
1.631613561779844531e+03 5.623413251903491145e-02
1.871287463370447995e+03 1.000000000000000056e-01
2.127463993100642256e+03 1.778279410038922925e-01
2.364353256390231309e+03 3.162277660168379412e-01
2.586787414086442368e+03 5.623413251903490728e-01
2.799496333384718127e+03 1.000000000000000000e+00
3.008297174734153032e+03 1.778279410038922759e+00
3.218534775011858073e+03 3.162277660168379523e+00
3.435700371658499535e+03 5.623413251903491172e+00
3.665356298659215554e+03 1.000000000000000000e+01
3.913041404999039514e+03 1.778279410038922848e+01
4.186741811991909344e+03 3.162277660168379256e+01
4.491505279124745357e+03 5.623413251903490817e+01
4.834927708243141751e+03 1.000000000000000000e+02
5.220808864460273981e+03 1.778279410038922776e+02
5.672250218385742301e+03 3.162277660168379612e+02
