# Temperature (K), Pressure (bars)
1.057420460691825383e+03 3.162277660168379191e-06
1.112656867090251808e+03 5.623413251903491208e-06
1.167893278087324916e+03 1.000000000000000082e-05
1.232146530523644969e+03 1.778279410038922901e-05
1.293994642290100046e+03 3.162277660168379530e-05
1.348615096137921000e+03 5.623413251903490700e-05
1.398562332979435951e+03 1.000000000000000048e-04
1.456107367931665522e+03 1.778279410038922698e-04
1.536083676326527439e+03 3.162277660168379394e-04
1.617475517708621055e+03 5.623413251903490971e-04
1.682398021375385497e+03 1.000000000000000021e-03
1.742955164031049890e+03 1.778279410038922752e-03
1.808953334774120549e+03 3.162277660168379394e-03
1.878733006006850701e+03 5.623413251903490971e-03
1.956348069620812112e+03 1.000000000000000021e-02
2.044200813986878529e+03 1.778279410038922925e-02
2.157737962781489387e+03 3.162277660168379134e-02
2.317343779710807212e+03 5.623413251903491145e-02
2.494159565972536711e+03 1.000000000000000056e-01
2.665131887989999996e+03 1.778279410038922925e-01
2.838442137251854092e+03 3.162277660168379412e-01
3.017580103380289984e+03 5.623413251903490728e-01
3.204162065652203637e+03 1.000000000000000000e+00
3.399562489669583556e+03 1.778279410038922759e+00
3.606695349741500650e+03 3.162277660168379523e+00
3.829946871517945965e+03 5.623413251903491172e+00
4.074468254289627112e+03 1.000000000000000000e+01
4.346210241352510820e+03 1.778279410038922848e+01
4.652436048390455653e+03 3.162277660168379256e+01
5.002977269357480509e+03 5.623413251903490817e+01
5.415371070970024448e+03 1.000000000000000000e+02
5.903446501105494463e+03 1.778279410038922776e+02
6.493048217916041722e+03 3.162277660168379612e+02
