# Temperature (K), Pressure (bars)
2.237759987961169827e+03 9.999999999999999547e-07
2.270989966005790848e+03 1.778279410038922901e-06
2.304219944178356855e+03 3.162277660168379191e-06
2.338465989355653619e+03 5.623413251903491208e-06
2.372401061506453516e+03 1.000000000000000082e-05
2.403165545976140038e+03 1.778279410038922901e-05
2.429352651074776531e+03 3.162277660168379530e-05
2.451864695603698237e+03 5.623413251903490700e-05
2.473857228711693097e+03 1.000000000000000048e-04
2.501019082195980445e+03 1.778279410038922698e-04
2.539274466217955705e+03 3.162277660168379394e-04
2.591696977851498104e+03 5.623413251903490971e-04
2.658514344663843076e+03 1.000000000000000021e-03
2.738991980849865740e+03 1.778279410038922752e-03
2.832532219937512309e+03 3.162277660168379394e-03
2.937783700572194448e+03 5.623413251903490971e-03
3.053693823481312393e+03 1.000000000000000021e-02
3.180236883115534511e+03 1.778279410038922925e-02
3.329388707217116462e+03 3.162277660168379134e-02
3.532592544071148041e+03 5.623413251903491145e-02
3.779778963141232907e+03 1.000000000000000056e-01
4.120289043673205015e+03 1.778279410038922925e-01
4.675933748640176418e+03 3.162277660168379412e-01
5.621555272069242164e+03 5.623413251903490728e-01
6.982487549095565555e+03 1.000000000000000000e+00
8.541997026510285650e+03 1.778279410038922759e+00
1.005047350378325064e+04 3.162277660168379523e+00
1.169238229138500174e+04 5.623413251903491172e+00
1.377750670706557503e+04 1.000000000000000000e+01
1.642038704050250089e+04 1.778279410038922848e+01
1.975585901016281059e+04 3.162277660168379256e+01
2.393883849687394104e+04 5.623413251903490817e+01
2.912727680504387536e+04 1.000000000000000000e+02
3.546215487720443343e+04 1.778279410038922776e+02
4.301888611118405242e+04 3.162277660168379612e+02
