# Temperature (K), Pressure (bars)
2.231802013584079305e+03 9.999999999999999547e-07
2.261339722187944062e+03 1.778279410038922901e-06
2.290877430859148262e+03 3.162277660168379191e-06
2.317227033492063129e+03 5.623413251903491208e-06
2.339467506118146957e+03 1.000000000000000082e-05
2.358011434071224357e+03 1.778279410038922901e-05
2.376449528549041588e+03 3.162277660168379530e-05
2.402449629817443565e+03 5.623413251903490700e-05
2.442365395685255862e+03 1.000000000000000048e-04
2.496833503662564908e+03 1.778279410038922698e-04
2.563563051054218704e+03 3.162277660168379394e-04
2.641291146420482164e+03 5.623413251903490971e-04
2.730192256191393426e+03 1.000000000000000021e-03
2.831550267741099560e+03 1.778279410038922752e-03
2.945985202918986033e+03 3.162277660168379394e-03
3.074311599801783814e+03 5.623413251903490971e-03
3.215341359050794381e+03 1.000000000000000021e-02
3.358362933600825272e+03 1.778279410038922925e-02
3.605876682398657067e+03 3.162277660168379134e-02
3.984849915064706238e+03 5.623413251903491145e-02
4.683510482571203283e+03 1.000000000000000056e-01
5.710581086504879750e+03 1.778279410038922925e-01
7.095482845933367571e+03 3.162277660168379412e-01
8.534208286733641216e+03 5.623413251903490728e-01
9.812720930838728236e+03 1.000000000000000000e+00
1.113801431250117275e+04 1.778279410038922759e+00
1.278028893707919815e+04 3.162277660168379523e+00
1.486494989672914198e+04 5.623413251903491172e+00
1.751384694800312718e+04 1.000000000000000000e+01
2.087037590836590971e+04 1.778279410038922848e+01
2.510615430805286087e+04 3.162277660168379256e+01
3.041867692541511497e+04 5.623413251903490817e+01
3.700696057205726538e+04 1.000000000000000000e+02
4.504556838350160979e+04 1.778279410038922776e+02
5.462710528969376901e+04 3.162277660168379612e+02
