# Temperature (K), Pressure (bars)
1.811008082544114359e+03 9.999999999999999547e-07
1.829239621650129038e+03 1.778279410038922901e-06
1.847471160756158270e+03 3.162277660168379191e-06
1.868265684489600517e+03 5.623413251903491208e-06
1.894750657360862078e+03 1.000000000000000082e-05
1.927282423942644982e+03 1.778279410038922901e-05
1.964264703833863905e+03 3.162277660168379530e-05
2.005869186167606586e+03 5.623413251903490700e-05
2.051504476224608425e+03 1.000000000000000048e-04
2.099627798538091156e+03 1.778279410038922698e-04
2.150320338033027838e+03 3.162277660168379394e-04
2.204280727205115454e+03 5.623413251903490971e-04
2.262799861829295878e+03 1.000000000000000021e-03
2.328490102243614274e+03 1.778279410038922752e-03
2.408577388602556766e+03 3.162277660168379394e-03
2.507904065712244119e+03 5.623413251903490971e-03
2.620755890459714919e+03 1.000000000000000021e-02
2.743018105859933712e+03 1.778279410038922925e-02
2.876076093764156667e+03 3.162277660168379134e-02
3.021393644887143637e+03 5.623413251903491145e-02
3.181239315970946336e+03 1.000000000000000056e-01
3.358867921076273888e+03 1.778279410038922925e-01
3.558436774861655977e+03 3.162277660168379412e-01
3.784710585901419108e+03 5.623413251903490728e-01
4.044212116970745228e+03 1.000000000000000000e+00
4.349529741597767497e+03 1.778279410038922759e+00
4.699030517600607709e+03 3.162277660168379523e+00
5.151157444661812406e+03 5.623413251903491172e+00
5.779653500210061793e+03 1.000000000000000000e+01
6.698660923686913520e+03 1.778279410038922848e+01
8.070855898708497989e+03 3.162277660168379256e+01
9.871586045695732537e+03 5.623413251903490817e+01
1.201591832911056008e+04 1.000000000000000000e+02
1.462412581148340360e+04 1.778279410038922776e+02
1.773488900783726422e+04 3.162277660168379612e+02
