# Temperature (K), Pressure (bars)
1.660727234604627483e+03 9.999999999999999547e-07
1.672419129915844223e+03 1.778279410038922901e-06
1.684111025227776963e+03 3.162277660168379191e-06
1.702047991065456699e+03 5.623413251903491208e-06
1.726568451636887175e+03 1.000000000000000082e-05
1.756862703454049779e+03 1.778279410038922901e-05
1.795321150793484776e+03 3.162277660168379530e-05
1.841905054933646625e+03 5.623413251903490700e-05
1.894604646410985197e+03 1.000000000000000048e-04
1.952568736810136215e+03 1.778279410038922698e-04
2.015388361940747927e+03 3.162277660168379394e-04
2.082702111649457038e+03 5.623413251903490971e-04
2.155647636300452177e+03 1.000000000000000021e-03
2.241248430977595490e+03 1.778279410038922752e-03
2.343983786020214211e+03 3.162277660168379394e-03
2.457741564335654402e+03 5.623413251903490971e-03
2.578141572650783019e+03 1.000000000000000021e-02
2.706350647957034653e+03 1.778279410038922925e-02
2.843637387376984407e+03 3.162277660168379134e-02
2.991631371901900820e+03 5.623413251903491145e-02
3.152631592539342819e+03 1.000000000000000056e-01
3.329776412573365633e+03 1.778279410038922925e-01
3.526698487168509473e+03 3.162277660168379412e-01
3.747148349599196990e+03 5.623413251903490728e-01
3.996362417977164114e+03 1.000000000000000000e+00
4.284626020192608848e+03 1.778279410038922759e+00
4.611066678068851616e+03 3.162277660168379523e+00
5.021862650629656855e+03 5.623413251903491172e+00
5.572897529126054906e+03 1.000000000000000000e+01
6.370732464499041271e+03 1.778279410038922848e+01
7.578617661776878776e+03 3.162277660168379256e+01
9.259422818034994634e+03 5.623413251903490817e+01
1.129828423342187125e+04 1.000000000000000000e+02
1.375421125636372017e+04 1.778279410038922776e+02
1.668396059293248254e+04 3.162277660168379612e+02
