# Temperature (K), Pressure (bars)
2.029256290464448966e+03 9.999999999999999547e-07
2.064934124024541688e+03 1.778279410038922901e-06
2.100611957584634183e+03 3.162277660168379191e-06
2.137514704207875184e+03 5.623413251903491208e-06
2.173928964269588050e+03 1.000000000000000082e-05
2.206431891217400334e+03 1.778279410038922901e-05
2.234380121518734541e+03 3.162277660168379530e-05
2.260303587591682117e+03 5.623413251903490700e-05
2.287899520569702872e+03 1.000000000000000048e-04
2.320247320001009484e+03 1.778279410038922698e-04
2.359074618673894292e+03 3.162277660168379394e-04
2.405499498095523450e+03 5.623413251903490971e-04
2.461110155205426963e+03 1.000000000000000021e-03
2.527380709965059395e+03 1.778279410038922752e-03
2.608588099222679830e+03 3.162277660168379394e-03
2.708856802971598427e+03 5.623413251903490971e-03
2.824453174656746341e+03 1.000000000000000021e-02
2.952701681667873800e+03 1.778279410038922925e-02
3.096853498338749432e+03 3.162277660168379134e-02
3.262922588764093689e+03 5.623413251903491145e-02
3.455919766513524792e+03 1.000000000000000056e-01
3.669945008206083912e+03 1.778279410038922925e-01
3.930719940504756323e+03 3.162277660168379412e-01
4.233238429606793943e+03 5.623413251903490728e-01
4.644407218701780948e+03 1.000000000000000000e+00
5.271488389846324026e+03 1.778279410038922759e+00
6.262880286914799399e+03 3.162277660168379523e+00
7.716982000111523121e+03 5.623413251903491172e+00
9.426601274551818278e+03 1.000000000000000000e+01
1.000000000000000000e+04 1.778279410038922848e+01
1.000000000000000000e+04 3.162277660168379256e+01
1.000000000000000000e+04 5.623413251903490817e+01
1.000000000000000000e+04 1.000000000000000000e+02
1.000000000000000000e+04 1.778279410038922776e+02
1.000000000000000000e+04 3.162277660168379612e+02
