# Temperature (K), Pressure (bars)
1.971433776087176284e+03 9.999999999999999547e-07
1.987690413657130648e+03 1.778279410038922901e-06
2.003947051227547036e+03 3.162277660168379191e-06
2.027136324444746606e+03 5.623413251903491208e-06
2.057625212391402783e+03 1.000000000000000082e-05
2.092407266771398099e+03 1.778279410038922901e-05
2.128915496075216652e+03 3.162277660168379530e-05
2.165071259936527895e+03 5.623413251903490700e-05
2.199148905265452413e+03 1.000000000000000048e-04
2.231572559654480756e+03 1.778279410038922698e-04
2.264719323545639327e+03 3.162277660168379394e-04
2.301326544750347693e+03 5.623413251903490971e-04
2.342882280521267603e+03 1.000000000000000021e-03
2.391767077462321140e+03 1.778279410038922752e-03
2.448589713979160024e+03 3.162277660168379394e-03
2.520470736481745007e+03 5.623413251903490971e-03
2.618555141334602922e+03 1.000000000000000021e-02
2.735132941060159737e+03 1.778279410038922925e-02
2.861863550034436230e+03 3.162277660168379134e-02
3.001183411536603671e+03 5.623413251903491145e-02
3.155119816910354075e+03 1.000000000000000056e-01
3.326691321081358183e+03 1.778279410038922925e-01
3.519708486391987208e+03 3.162277660168379412e-01
3.738179121609622598e+03 5.623413251903490728e-01
3.987089007254605349e+03 1.000000000000000000e+00
4.275729749421181623e+03 1.778279410038922759e+00
4.599694817890719605e+03 3.162277660168379523e+00
5.005170356874069512e+03 5.623413251903491172e+00
5.542177059152690163e+03 1.000000000000000000e+01
6.296374840321720512e+03 1.778279410038922848e+01
7.407515625087452463e+03 3.162277660168379256e+01
9.013619412927275334e+03 5.623413251903490817e+01
1.100055881101265004e+04 1.000000000000000000e+02
1.338839143814223098e+04 1.778279410038922776e+02
1.623419967541233200e+04 3.162277660168379612e+02
