# Temperature (K), Pressure (bars)
9.373942595074045130e+02 3.162277660168379530e-05
9.890392247032266368e+02 5.623413251903490700e-05
1.040684190285477598e+03 1.000000000000000048e-04
1.084750364923080724e+03 1.778279410038922698e-04
1.122844293991159248e+03 3.162277660168379394e-04
1.157165254405141923e+03 5.623413251903490971e-04
1.188480270701074460e+03 1.000000000000000021e-03
1.218685887422039968e+03 1.778279410038922752e-03
1.248172656298392212e+03 3.162277660168379394e-03
1.277632142119713535e+03 5.623413251903490971e-03
1.304640800077794893e+03 1.000000000000000021e-02
1.340895961361494756e+03 1.778279410038922925e-02
1.413532421697196469e+03 3.162277660168379134e-02
1.521048734062217136e+03 5.623413251903491145e-02
1.652238129193726536e+03 1.000000000000000056e-01
1.796196502355404846e+03 1.778279410038922925e-01
1.974399899588570406e+03 3.162277660168379412e-01
2.219301740574701853e+03 5.623413251903490728e-01
2.481259417223231139e+03 1.000000000000000000e+00
2.721753974657997787e+03 1.778279410038922759e+00
2.953249330471591747e+03 3.162277660168379523e+00
3.182569747378145166e+03 5.623413251903491172e+00
3.416758539359202132e+03 1.000000000000000000e+01
3.662598201536577108e+03 1.778279410038922848e+01
3.928367418821194406e+03 3.162277660168379256e+01
4.219027817519442578e+03 5.623413251903490817e+01
4.541399088608142847e+03 1.000000000000000000e+02
4.898491993073286721e+03 1.778279410038922776e+02
5.310347919468217697e+03 3.162277660168379612e+02
