# Temperature (K), Pressure (bars)
8.435434330500075930e+02 1.000000000000000021e-03
8.842015001194438355e+02 1.778279410038922752e-03
9.248595684181370871e+02 3.162277660168379394e-03
9.641403170944035992e+02 5.623413251903490971e-03
1.003688899281546469e+03 1.000000000000000021e-02
1.044320698649678434e+03 1.778279410038922925e-02
1.086047554174293737e+03 3.162277660168379134e-02
1.130105517079803576e+03 5.623413251903491145e-02
1.178844035037957156e+03 1.000000000000000056e-01
1.236354421711014083e+03 1.778279410038922925e-01
1.307001518262313994e+03 3.162277660168379412e-01
1.400448346278781855e+03 5.623413251903490728e-01
1.537526149450143066e+03 1.000000000000000000e+00
1.738235770718277763e+03 1.778279410038922759e+00
1.997471694228048364e+03 3.162277660168379523e+00
2.285386417441084177e+03 5.623413251903491172e+00
2.579749057330459891e+03 1.000000000000000000e+01
2.873473889065532148e+03 1.778279410038922848e+01
3.167828251933890442e+03 3.162277660168379256e+01
3.466014438414877077e+03 5.623413251903490817e+01
3.775881986050005708e+03 1.000000000000000000e+02
4.102719977740493050e+03 1.778279410038922776e+02
4.460767250311097996e+03 3.162277660168379612e+02
