# Temperature (K), Pressure (bars)
1.717457436093557590e+03 5.623413251903491208e-06
1.725256455103359485e+03 1.000000000000000082e-05
1.733055475849374716e+03 1.778279410038922901e-05
1.786991946205953809e+03 3.162277660168379530e-05
1.842388761699986389e+03 5.623413251903490700e-05
1.879122367433661793e+03 1.000000000000000048e-04
1.920110036423449856e+03 1.778279410038922698e-04
1.966258229055630409e+03 3.162277660168379394e-04
2.012590030946872957e+03 5.623413251903490971e-04
2.057562499597107944e+03 1.000000000000000021e-03
2.098090073682692037e+03 1.778279410038922752e-03
2.134169393381790087e+03 3.162277660168379394e-03
2.166402749913109346e+03 5.623413251903490971e-03
2.195607009391074371e+03 1.000000000000000021e-02
2.223529438293287967e+03 1.778279410038922925e-02
2.255196298133613709e+03 3.162277660168379134e-02
2.293119398736332641e+03 5.623413251903491145e-02
2.347556033757171917e+03 1.000000000000000056e-01
2.415865328715170563e+03 1.778279410038922925e-01
2.522037488937246053e+03 3.162277660168379412e-01
2.705873345299201446e+03 5.623413251903490728e-01
2.914834888159522052e+03 1.000000000000000000e+00
3.112218755598381904e+03 1.778279410038922759e+00
3.318056468046873761e+03 3.162277660168379523e+00
3.536207004953702381e+03 5.623413251903491172e+00
3.769624503606398321e+03 1.000000000000000000e+01
4.022860189125872694e+03 1.778279410038922848e+01
4.303158128790290903e+03 3.162277660168379256e+01
4.617327682507615464e+03 5.623413251903490817e+01
4.973948983906218928e+03 1.000000000000000000e+02
5.377433743617556502e+03 1.778279410038922776e+02
5.854285241033399871e+03 3.162277660168379612e+02
