# Temperature (K), Pressure (bars)
2.412573782548089639e+03 9.999999999999999547e-07
2.436740991170331199e+03 1.778279410038922901e-06
2.460908199792572759e+03 3.162277660168379191e-06
2.489799942342235227e+03 5.623413251903491208e-06
2.523781367607720767e+03 1.000000000000000082e-05
2.558325590998768348e+03 1.778279410038922901e-05
2.593932184728295397e+03 3.162277660168379530e-05
2.631993144077085162e+03 5.623413251903490700e-05
2.671513758510548541e+03 1.000000000000000048e-04
2.711668147187767318e+03 1.778279410038922698e-04
2.750512744001300234e+03 3.162277660168379394e-04
2.784843618253048589e+03 5.623413251903490971e-04
2.811327201358084949e+03 1.000000000000000021e-03
2.831529050318220925e+03 1.778279410038922752e-03
2.854837585705490710e+03 3.162277660168379394e-03
2.893140883142154053e+03 5.623413251903490971e-03
2.951268123334612028e+03 1.000000000000000021e-02
3.030203012488135755e+03 1.778279410038922925e-02
3.124329290160054825e+03 3.162277660168379134e-02
3.239921044616587551e+03 5.623413251903491145e-02
3.398554206925227390e+03 1.000000000000000056e-01
3.598737511860173072e+03 1.778279410038922925e-01
3.847929234943494066e+03 3.162277660168379412e-01
4.118244474480750796e+03 5.623413251903490728e-01
4.462242362700106241e+03 1.000000000000000000e+00
4.943160598300423771e+03 1.778279410038922759e+00
5.702088659969743276e+03 3.162277660168379523e+00
6.914306255419914123e+03 5.623413251903491172e+00
8.526403668879309407e+03 1.000000000000000000e+01
1.000000000000000000e+04 1.778279410038922848e+01
1.000000000000000000e+04 3.162277660168379256e+01
1.000000000000000000e+04 5.623413251903490817e+01
1.000000000000000000e+04 1.000000000000000000e+02
1.000000000000000000e+04 1.778279410038922776e+02
1.000000000000000000e+04 3.162277660168379612e+02
