# Temperature (K), Pressure (bars)
1.706590577931617190e+03 9.999999999999999547e-07
1.708035990877214772e+03 1.778279410038922901e-06
1.709481403900740588e+03 3.162277660168379191e-06
1.753594034690680473e+03 5.623413251903491208e-06
1.807102670950055654e+03 1.000000000000000082e-05
1.845949839905635827e+03 1.778279410038922901e-05
1.883999017645317963e+03 3.162277660168379530e-05
1.928081334669639318e+03 5.623413251903490700e-05
1.974756489061263892e+03 1.000000000000000048e-04
2.022347399690026123e+03 1.778279410038922698e-04
2.067789114192265515e+03 3.162277660168379394e-04
2.108277222574128700e+03 5.623413251903490971e-04
2.144597828519352788e+03 1.000000000000000021e-03
2.177680337082240385e+03 1.778279410038922752e-03
2.208346877464016870e+03 3.162277660168379394e-03
2.237929267207891371e+03 5.623413251903490971e-03
2.269827236724223894e+03 1.000000000000000021e-02
2.306376300187732340e+03 1.778279410038922925e-02
2.353890402947446091e+03 3.162277660168379134e-02
2.411933153991476047e+03 5.623413251903491145e-02
2.496400084913541832e+03 1.000000000000000056e-01
2.635540463352838742e+03 1.778279410038922925e-01
2.804026679472525757e+03 3.162277660168379412e-01
2.976270386019077705e+03 5.623413251903490728e-01
3.158799429508639605e+03 1.000000000000000000e+00
3.353556269149567470e+03 1.778279410038922759e+00
3.561515235897060847e+03 3.162277660168379523e+00
3.785063335797376567e+03 5.623413251903491172e+00
4.028535844396159064e+03 1.000000000000000000e+01
4.297606038830481339e+03 1.778279410038922848e+01
4.599395432971746231e+03 3.162277660168379256e+01
4.943202861960082373e+03 5.623413251903490817e+01
5.345344945547017232e+03 1.000000000000000000e+02
5.819027942078190790e+03 1.778279410038922776e+02
6.387581132566766428e+03 3.162277660168379612e+02
