# Temperature (K), Pressure (bars)
1.217802997705063490e+03 9.999999999999999547e-07
1.283240490305465300e+03 1.778279410038922901e-06
1.348677982905867339e+03 3.162277660168379191e-06
1.404579709737027315e+03 5.623413251903491208e-06
1.457825318733817767e+03 1.000000000000000082e-05
1.526590379760762744e+03 1.778279410038922901e-05
1.605130604879375596e+03 3.162277660168379530e-05
1.674614079291667849e+03 5.623413251903490700e-05
1.736071292664620614e+03 1.000000000000000048e-04
1.799731575917230657e+03 1.778279410038922698e-04
1.865636360751027496e+03 3.162277660168379394e-04
1.933206213109731380e+03 5.623413251903490971e-04
2.005500818660382265e+03 1.000000000000000021e-03
2.088173915073326043e+03 1.778279410038922752e-03
2.191497931875657287e+03 3.162277660168379394e-03
2.314859872885595905e+03 5.623413251903490971e-03
2.447874941976453556e+03 1.000000000000000021e-02
2.586600926785215506e+03 1.778279410038922925e-02
2.732463761578258527e+03 3.162277660168379134e-02
2.887294210204054252e+03 5.623413251903491145e-02
3.053075914978950095e+03 1.000000000000000056e-01
3.231299323624005865e+03 1.778279410038922925e-01
3.422652737788629565e+03 3.162277660168379412e-01
3.628583195186396551e+03 5.623413251903490728e-01
3.853295529149276263e+03 1.000000000000000000e+00
4.104077514883483673e+03 1.778279410038922759e+00
4.391342476209312736e+03 3.162277660168379523e+00
4.724216451100977793e+03 5.623413251903491172e+00
5.133498522717160995e+03 1.000000000000000000e+01
5.659502633798070747e+03 1.778279410038922848e+01
6.375357547283070744e+03 3.162277660168379256e+01
7.413199370150167852e+03 5.623413251903490817e+01
8.926334871408673280e+03 1.000000000000000000e+02
1.086097287357686218e+04 1.778279410038922776e+02
1.317329866391878932e+04 3.162277660168379612e+02
