# Temperature (K), Pressure (bars)
2.341065461581499676e+03 9.999999999999999547e-07
2.360130690561769370e+03 1.778279410038922901e-06
2.379195919542039519e+03 3.162277660168379191e-06
2.408248133206846433e+03 5.623413251903491208e-06
2.438993333815998540e+03 1.000000000000000082e-05
2.472154553988206317e+03 1.778279410038922901e-05
2.508825101844523488e+03 3.162277660168379530e-05
2.546869239374902918e+03 5.623413251903490700e-05
2.587362121835934886e+03 1.000000000000000048e-04
2.629897186332320871e+03 1.778279410038922698e-04
2.673150548945905484e+03 3.162277660168379394e-04
2.714810449869444710e+03 5.623413251903490971e-04
2.751960702554657473e+03 1.000000000000000021e-03
2.782871186027784461e+03 1.778279410038922752e-03
2.808869664262413608e+03 3.162277660168379394e-03
2.835746379641432213e+03 5.623413251903490971e-03
2.869777805673173589e+03 1.000000000000000021e-02
2.918190739906420276e+03 1.778279410038922925e-02
2.981257323995262595e+03 3.162277660168379134e-02
3.068733780648045467e+03 5.623413251903491145e-02
3.200183774622521923e+03 1.000000000000000056e-01
3.363488353962857673e+03 1.778279410038922925e-01
3.547590451886065694e+03 3.162277660168379412e-01
3.762087232746667723e+03 5.623413251903490728e-01
4.014516037605282690e+03 1.000000000000000000e+00
4.316217400463734521e+03 1.778279410038922759e+00
4.654178392405491650e+03 3.162277660168379523e+00
5.084893862741893827e+03 5.623413251903491172e+00
5.674691701635833851e+03 1.000000000000000000e+01
6.555648524915247435e+03 1.778279410038922848e+01
7.895122778224286776e+03 3.162277660168379256e+01
9.663671220570540754e+03 5.623413251903490817e+01
1.177748975837598118e+04 1.000000000000000000e+02
1.433880126593658497e+04 1.778279410038922776e+02
1.739519278389807005e+04 3.162277660168379612e+02
