# Temperature (K), Pressure (bars)
2.286986351413454486e+03 9.999999999999999547e-07
2.310981359804887688e+03 1.778279410038922901e-06
2.334976368196321800e+03 3.162277660168379191e-06
2.361264858088787150e+03 5.623413251903491208e-06
2.389465074034906138e+03 1.000000000000000082e-05
2.418289955103986813e+03 1.778279410038922901e-05
2.447840663375253371e+03 3.162277660168379530e-05
2.477227029942790523e+03 5.623413251903490700e-05
2.503417404642184010e+03 1.000000000000000048e-04
2.522300093608565930e+03 1.778279410038922698e-04
2.532451935654027238e+03 3.162277660168379394e-04
2.539990677820560450e+03 5.623413251903490971e-04
2.554969219490942123e+03 1.000000000000000021e-03
2.583189327427143780e+03 1.778279410038922752e-03
2.625376574547897235e+03 3.162277660168379394e-03
2.680249899185033428e+03 5.623413251903490971e-03
2.748485892988057003e+03 1.000000000000000021e-02
2.829444089872294171e+03 1.778279410038922925e-02
2.928876360754916732e+03 3.162277660168379134e-02
3.056422638101384109e+03 5.623413251903491145e-02
3.205570663065779172e+03 1.000000000000000056e-01
3.372940089389112927e+03 1.778279410038922925e-01
3.566192952741782847e+03 3.162277660168379412e-01
3.791077138289157119e+03 5.623413251903490728e-01
4.054239243508737218e+03 1.000000000000000000e+00
4.368453357011521803e+03 1.778279410038922759e+00
4.726018123806997210e+03 3.162277660168379523e+00
5.194419403075724404e+03 5.623413251903491172e+00
5.862406986202817279e+03 1.000000000000000000e+01
6.895864494392748384e+03 1.778279410038922848e+01
8.406010484763555723e+03 3.162277660168379256e+01
1.000000000000000000e+04 5.623413251903490817e+01
1.000000000000000000e+04 1.000000000000000000e+02
1.000000000000000000e+04 1.778279410038922776e+02
1.000000000000000000e+04 3.162277660168379612e+02
