# Temperature (K), Pressure (bars)
2.130643030077680123e+03 9.999999999999999547e-07
2.158701414513955569e+03 1.778279410038922901e-06
2.186759798950230106e+03 3.162277660168379191e-06
2.218613792335868311e+03 5.623413251903491208e-06
2.254095096141184968e+03 1.000000000000000082e-05
2.293052791301718571e+03 1.778279410038922901e-05
2.335433488542872510e+03 3.162277660168379530e-05
2.379148443308388778e+03 5.623413251903490700e-05
2.421652829186593408e+03 1.000000000000000048e-04
2.461268928401111225e+03 1.778279410038922698e-04
2.497000206478174277e+03 3.162277660168379394e-04
2.529092852243488778e+03 5.623413251903490971e-04
2.559413903709481019e+03 1.000000000000000021e-03
2.590569555449746531e+03 1.778279410038922752e-03
2.625960564678729497e+03 3.162277660168379394e-03
2.668053583660472214e+03 5.623413251903490971e-03
2.721522858715652092e+03 1.000000000000000021e-02
2.786147948961278416e+03 1.778279410038922925e-02
2.871093089127842177e+03 3.162277660168379134e-02
2.993456976275782836e+03 5.623413251903491145e-02
3.141248607766773603e+03 1.000000000000000056e-01
3.305000435567560999e+03 1.778279410038922925e-01
3.492581351758266010e+03 3.162277660168379412e-01
3.706997937735087817e+03 5.623413251903490728e-01
3.951252258646842165e+03 1.000000000000000000e+00
4.232724116233859604e+03 1.778279410038922759e+00
4.543755203665602494e+03 3.162277660168379523e+00
4.926690327736196195e+03 5.623413251903491172e+00
5.422295234209340379e+03 1.000000000000000000e+01
6.106854686736355688e+03 1.778279410038922848e+01
7.118193438173967479e+03 3.162277660168379256e+01
8.611152715502246792e+03 5.623413251903490817e+01
1.051336354802963251e+04 1.000000000000000000e+02
1.279698343968767222e+04 1.778279410038922776e+02
1.552103184604335911e+04 3.162277660168379612e+02
