# Temperature (K), Pressure (bars)
2.378406722524287034e+03 9.999999999999999547e-07
2.405564394093124974e+03 1.778279410038922901e-06
2.432722065661962461e+03 3.162277660168379191e-06
2.459864034801476919e+03 5.623413251903491208e-06
2.491304729498488996e+03 1.000000000000000082e-05
2.526319330051677753e+03 1.778279410038922901e-05
2.562750542058696283e+03 3.162277660168379530e-05
2.601567363666163146e+03 5.623413251903490700e-05
2.643377338779682759e+03 1.000000000000000048e-04
2.687322677658137764e+03 1.778279410038922698e-04
2.732243804900503619e+03 3.162277660168379394e-04
2.776552352300366692e+03 5.623413251903490971e-04
2.817606448161953267e+03 1.000000000000000021e-03
2.853073698049724499e+03 1.778279410038922752e-03
2.883104036067441029e+03 3.162277660168379394e-03
2.912243456000360311e+03 5.623413251903490971e-03
2.946780471354648398e+03 1.000000000000000021e-02
2.994334673864082106e+03 1.778279410038922925e-02
3.057466654716552512e+03 3.162277660168379134e-02
3.144964023104208991e+03 5.623413251903491145e-02
3.274420180407754287e+03 1.000000000000000056e-01
3.440935680929778300e+03 1.778279410038922925e-01
3.636172509250220173e+03 3.162277660168379412e-01
3.868809685176216590e+03 5.623413251903490728e-01
4.155351816510254139e+03 1.000000000000000000e+00
4.470221812788291572e+03 1.778279410038922759e+00
4.873073273667331705e+03 3.162277660168379523e+00
5.429555239189348868e+03 5.623413251903491172e+00
6.269463634376162190e+03 1.000000000000000000e+01
7.567942626086342898e+03 1.778279410038922848e+01
9.287750708221932655e+03 3.162277660168379256e+01
1.131098051398365169e+04 5.623413251903490817e+01
1.376275910327077690e+04 1.000000000000000000e+02
1.675627324999390112e+04 1.778279410038922776e+02
2.032611852455742701e+04 3.162277660168379612e+02
