# Temperature (K), Pressure (bars)
9.001835874144255740e+02 5.623413251903490700e-05
9.452442542044584570e+02 1.000000000000000048e-04
9.903049229959317472e+02 1.778279410038922698e-04
1.037382246928413906e+03 3.162277660168379394e-04
1.086100976869599890e+03 5.623413251903490971e-04
1.136092985751289007e+03 1.000000000000000021e-03
1.187554131751489876e+03 1.778279410038922752e-03
1.241871889509580569e+03 3.162277660168379394e-03
1.300712820853286757e+03 5.623413251903490971e-03
1.381054888748060421e+03 1.000000000000000021e-02
1.531446137723728043e+03 1.778279410038922925e-02
1.761457655798014002e+03 3.162277660168379134e-02
2.012973719330207132e+03 5.623413251903491145e-02
2.247734549975332357e+03 1.000000000000000056e-01
2.463425517533739367e+03 1.778279410038922925e-01
2.664022541515249031e+03 3.162277660168379412e-01
2.856761391481526061e+03 5.623413251903490728e-01
3.047499783724542340e+03 1.000000000000000000e+00
3.241394937810300689e+03 1.778279410038922759e+00
3.443572333343414357e+03 3.162277660168379523e+00
3.658963470662213695e+03 5.623413251903491172e+00
3.892385577541157090e+03 1.000000000000000000e+01
4.148978594514380347e+03 1.778279410038922848e+01
4.434770012936366584e+03 3.162277660168379256e+01
4.757700919150825030e+03 5.623413251903490817e+01
5.132710782994547117e+03 1.000000000000000000e+02
5.568261375931383554e+03 1.778279410038922776e+02
6.081882904007611614e+03 3.162277660168379612e+02
