# Temperature (K), Pressure (bars)
8.668504471494323980e+02 3.162277660168379394e-04
9.180915349156448428e+02 5.623413251903490971e-04
9.693326237924344468e+02 1.000000000000000021e-03
1.020162167984014559e+03 1.778279410038922752e-03
1.070533766824632949e+03 3.162277660168379394e-03
1.121749524178236925e+03 5.623413251903490971e-03
1.175732637237427753e+03 1.000000000000000021e-02
1.236077620699442150e+03 1.778279410038922925e-02
1.308051904767704627e+03 3.162277660168379134e-02
1.408539223011364129e+03 5.623413251903491145e-02
1.551952035669241468e+03 1.000000000000000056e-01
1.748616966638546501e+03 1.778279410038922925e-01
1.999579320045971826e+03 3.162277660168379412e-01
2.264333547747792181e+03 5.623413251903490728e-01
2.513132157711579566e+03 1.000000000000000000e+00
2.749064857507954457e+03 1.778279410038922759e+00
2.976966118528025618e+03 3.162277660168379523e+00
3.203791186714684954e+03 5.623413251903491172e+00
3.436517167013369544e+03 1.000000000000000000e+01
3.681683601061353784e+03 1.778279410038922848e+01
3.947686950639330917e+03 3.162277660168379256e+01
4.239180572181950993e+03 5.623413251903490817e+01
4.562934883739816541e+03 1.000000000000000000e+02
4.922436052852159264e+03 1.778279410038922776e+02
5.337246605357848239e+03 3.162277660168379612e+02
