# Temperature (K), Pressure (bars)
1.937686399133998293e+03 9.999999999999999547e-07
1.952293085304143915e+03 1.778279410038922901e-06
1.966899771474289537e+03 3.162277660168379191e-06
1.990253793591446993e+03 5.623413251903491208e-06
2.024764198097707094e+03 1.000000000000000082e-05
2.066351964731393764e+03 1.778279410038922901e-05
2.110601038494795375e+03 3.162277660168379530e-05
2.154837816690688669e+03 5.623413251903490700e-05
2.196396335251658911e+03 1.000000000000000048e-04
2.233711253493439472e+03 1.778279410038922698e-04
2.267188035071486865e+03 3.162277660168379394e-04
2.297994528045449897e+03 5.623413251903490971e-04
2.327336294831920895e+03 1.000000000000000021e-03
2.356746609956686825e+03 1.778279410038922752e-03
2.388555990485328948e+03 3.162277660168379394e-03
2.425078980457933994e+03 5.623413251903490971e-03
2.470121651748309432e+03 1.000000000000000021e-02
2.526065885909424196e+03 1.778279410038922925e-02
2.609041802257098880e+03 3.162277660168379134e-02
2.732671650212500936e+03 5.623413251903491145e-02
2.875949802311406074e+03 1.000000000000000056e-01
3.027260278905436280e+03 1.778279410038922925e-01
3.194098721285411102e+03 3.162277660168379412e-01
3.377534188831627944e+03 5.623413251903490728e-01
3.577314329745786836e+03 1.000000000000000000e+00
3.794416689178954130e+03 1.778279410038922759e+00
4.032603557293904487e+03 3.162277660168379523e+00
4.298346567845619575e+03 5.623413251903491172e+00
4.600669768606259822e+03 1.000000000000000000e+01
4.951528461999091633e+03 1.778279410038922848e+01
5.370826816156682071e+03 3.162277660168379256e+01
5.886271997088098033e+03 5.623413251903490817e+01
6.544035960876598438e+03 1.000000000000000000e+02
7.423601437774772421e+03 1.778279410038922776e+02
8.647449114554021435e+03 3.162277660168379612e+02
