# Temperature (K), Pressure (bars)
9.651175627237869321e+02 1.000000000000000082e-05
1.010601804121607529e+03 1.778279410038922901e-05
1.056086052196484616e+03 3.162277660168379530e-05
1.124172921627208098e+03 5.623413251903490700e-05
1.216498625932432560e+03 1.000000000000000048e-04
1.332634344182481527e+03 1.778279410038922698e-04
1.485761842559704746e+03 3.162277660168379394e-04
1.618914677420736780e+03 5.623413251903490971e-04
1.693421622110192629e+03 1.000000000000000021e-03
1.743012427016087713e+03 1.778279410038922752e-03
1.787583739461129198e+03 3.162277660168379394e-03
1.829005211874400629e+03 5.623413251903490971e-03
1.867053414009172457e+03 1.000000000000000021e-02
1.904077329147723276e+03 1.778279410038922925e-02
1.944393750586823444e+03 3.162277660168379134e-02
1.991154218006884321e+03 5.623413251903491145e-02
2.049900043883624676e+03 1.000000000000000056e-01
2.123627692976359413e+03 1.778279410038922925e-01
2.223712031555912745e+03 3.162277660168379412e-01
2.388393061660687636e+03 5.623413251903490728e-01
2.614733512814680580e+03 1.000000000000000000e+00
2.846308341896017282e+03 1.778279410038922759e+00
3.066897033981980712e+03 3.162277660168379523e+00
3.290777898437318527e+03 5.623413251903491172e+00
3.523313456003954798e+03 1.000000000000000000e+01
3.769954556270818102e+03 1.778279410038922848e+01
4.038300764518322467e+03 3.162277660168379256e+01
4.334093650125211752e+03 5.623413251903490817e+01
4.664485025175077681e+03 1.000000000000000000e+02
5.033056275006467331e+03 1.778279410038922776e+02
5.460761373467847989e+03 3.162277660168379612e+02
