# Temperature (K), Pressure (bars)
2.377253394450956421e+03 9.999999999999999547e-07
2.392086791326075399e+03 1.778279410038922901e-06
2.406920188201194378e+03 3.162277660168379191e-06
2.434656340502839157e+03 5.623413251903491208e-06
2.468373481315768458e+03 1.000000000000000082e-05
2.504326151169545938e+03 1.778279410038922901e-05
2.545016469211476760e+03 3.162277660168379530e-05
2.589964258060611428e+03 5.623413251903490700e-05
2.638326860869681695e+03 1.000000000000000048e-04
2.688669308728685792e+03 1.778279410038922698e-04
2.738639292009947440e+03 3.162277660168379394e-04
2.785850821215341966e+03 5.623413251903490971e-04
2.828121897564710707e+03 1.000000000000000021e-03
2.865330307457599702e+03 1.778279410038922752e-03
2.900958568932862363e+03 3.162277660168379394e-03
2.942648964580894244e+03 5.623413251903490971e-03
2.995955065633020695e+03 1.000000000000000021e-02
3.067053852800529057e+03 1.778279410038922925e-02
3.150947154334310198e+03 3.162277660168379134e-02
3.258372295446344197e+03 5.623413251903491145e-02
3.421414330705897100e+03 1.000000000000000056e-01
3.621424714833769940e+03 1.778279410038922925e-01
3.859446269916226811e+03 3.162277660168379412e-01
4.133694179111456833e+03 5.623413251903490728e-01
4.486300151979719885e+03 1.000000000000000000e+00
4.985547266617928472e+03 1.778279410038922759e+00
5.778661274169950957e+03 3.162277660168379523e+00
7.034598009788328454e+03 5.623413251903491172e+00
8.671267212448294231e+03 1.000000000000000000e+01
1.000000000000000000e+04 1.778279410038922848e+01
1.000000000000000000e+04 3.162277660168379256e+01
1.000000000000000000e+04 5.623413251903490817e+01
1.000000000000000000e+04 1.000000000000000000e+02
1.000000000000000000e+04 1.778279410038922776e+02
1.000000000000000000e+04 3.162277660168379612e+02
