# Temperature (K), Pressure (bars)
7.795336580326379590e+02 3.162277660168379394e-04
8.221686256504780204e+02 5.623413251903490971e-04
8.648035942154036775e+02 1.000000000000000021e-03
9.072476401530537942e+02 1.778279410038922752e-03
9.497490531016940167e+02 3.162277660168379394e-03
9.935981887981012051e+02 5.623413251903490971e-03
1.040929401548500664e+03 1.000000000000000021e-02
1.095257634993755346e+03 1.778279410038922925e-02
1.162505204017364804e+03 3.162277660168379134e-02
1.248765167210137861e+03 5.623413251903491145e-02
1.366733364685154811e+03 1.000000000000000056e-01
1.545796053667098931e+03 1.778279410038922925e-01
1.789628614058661924e+03 3.162277660168379412e-01
2.059197831954669255e+03 5.623413251903490728e-01
2.326731150849818277e+03 1.000000000000000000e+00
2.583984287353628588e+03 1.778279410038922759e+00
2.828614570066108172e+03 3.162277660168379523e+00
3.066364405085674207e+03 5.623413251903491172e+00
3.305163720175506114e+03 1.000000000000000000e+01
3.552552892400020028e+03 1.778279410038922848e+01
3.817405015841180557e+03 3.162277660168379256e+01
4.104470125556596031e+03 5.623413251903490817e+01
4.420409988302753845e+03 1.000000000000000000e+02
4.768286338303104458e+03 1.778279410038922776e+02
5.166639923419568731e+03 3.162277660168379612e+02
