# Temperature (K), Pressure (bars)
1.007594722406465735e+03 1.000000000000000048e-04
1.056883425327135456e+03 1.778279410038922698e-04
1.106172128337085951e+03 3.162277660168379394e-04
1.145672566421680813e+03 5.623413251903490971e-04
1.178210660996477600e+03 1.000000000000000021e-03
1.209661039458605046e+03 1.778279410038922752e-03
1.240736546385780002e+03 3.162277660168379394e-03
1.271567849025030455e+03 5.623413251903490971e-03
1.319818379599498257e+03 1.000000000000000021e-02
1.394681539967394201e+03 1.778279410038922925e-02
1.496399033612153062e+03 3.162277660168379134e-02
1.623038327106348788e+03 5.623413251903491145e-02
1.743086795917990003e+03 1.000000000000000056e-01
1.849687747312487090e+03 1.778279410038922925e-01
1.960725501354033213e+03 3.162277660168379412e-01
2.092708573687436001e+03 5.623413251903490728e-01
2.287842660750107370e+03 1.000000000000000000e+00
2.546310385473584574e+03 1.778279410038922759e+00
2.806599954445884578e+03 3.162277660168379523e+00
3.048897686367110964e+03 5.623413251903491172e+00
3.291003049804748116e+03 1.000000000000000000e+01
3.540609028969556675e+03 1.778279410038922848e+01
3.806208629404299245e+03 3.162277660168379256e+01
4.093543090804755138e+03 5.623413251903490817e+01
4.409396269498178299e+03 1.000000000000000000e+02
4.756819598763639988e+03 1.778279410038922776e+02
5.154564880455256571e+03 3.162277660168379612e+02
