# Temperature (K), Pressure (bars)
9.363881833702289441e+02 3.162277660168379394e-03
9.793579614497332386e+02 5.623413251903490971e-03
1.022327740727917899e+03 1.000000000000000021e-02
1.063983663549814310e+03 1.778279410038922925e-02
1.105360903070011091e+03 3.162277660168379134e-02
1.147656094366770276e+03 5.623413251903491145e-02
1.192270153781415502e+03 1.000000000000000056e-01
1.241991081055734867e+03 1.778279410038922925e-01
1.299570799361408035e+03 3.162277660168379412e-01
1.371282839365655491e+03 5.623413251903490728e-01
1.472349165615046559e+03 1.000000000000000000e+00
1.611580992765045721e+03 1.778279410038922759e+00
1.795710531252848796e+03 3.162277660168379523e+00
2.042957755617619569e+03 5.623413251903491172e+00
2.341565209480239901e+03 1.000000000000000000e+01
2.650829122750367787e+03 1.778279410038922848e+01
2.958775164035110720e+03 3.162277660168379256e+01
3.267927786423812449e+03 5.623413251903490817e+01
3.583803387333686715e+03 1.000000000000000000e+02
3.911283039969670426e+03 1.778279410038922776e+02
4.264699977299586863e+03 3.162277660168379612e+02
