# Temperature (K), Pressure (bars)
1.003263631397862810e+03 9.999999999999999547e-07
1.031207437336125395e+03 1.778279410038922901e-06
1.059151243281318784e+03 3.162277660168379191e-06
1.095776982991523710e+03 5.623413251903491208e-06
1.143191181011719891e+03 1.000000000000000082e-05
1.199251697353545751e+03 1.778279410038922901e-05
1.259331594367803973e+03 3.162277660168379530e-05
1.320720985540801166e+03 5.623413251903490700e-05
1.384680593800525457e+03 1.000000000000000048e-04
1.449786414411796386e+03 1.778279410038922698e-04
1.522813153674468140e+03 3.162277660168379394e-04
1.613833737068820028e+03 5.623413251903490971e-04
1.703079600149803355e+03 1.000000000000000021e-03
1.777295330042270734e+03 1.778279410038922752e-03
1.849079511080578413e+03 3.162277660168379394e-03
1.929093583470058547e+03 5.623413251903490971e-03
2.017247336665339390e+03 1.000000000000000021e-02
2.131483272794793265e+03 1.778279410038922925e-02
2.292262795629414541e+03 3.162277660168379134e-02
2.466064498630120852e+03 5.623413251903491145e-02
2.630538119975729387e+03 1.000000000000000056e-01
2.796758959026468801e+03 1.778279410038922925e-01
2.968348052423276840e+03 3.162277660168379412e-01
3.147281318082102189e+03 5.623413251903490728e-01
3.334691713576568873e+03 1.000000000000000000e+00
3.532678654838711736e+03 1.778279410038922759e+00
3.745043736274186813e+03 3.162277660168379523e+00
3.976700201874377854e+03 5.623413251903491172e+00
4.233337018796796656e+03 1.000000000000000000e+01
4.521909820810265956e+03 1.778279410038922848e+01
4.851686851517592004e+03 3.162277660168379256e+01
5.238454558572292626e+03 5.623413251903490817e+01
5.696144143405458635e+03 1.000000000000000000e+02
6.249781044750775436e+03 1.778279410038922776e+02
6.937273098222458430e+03 3.162277660168379612e+02
