# Temperature (K), Pressure (bars)
8.301372284440475369e+02 5.623413251903490971e-04
8.703150835692996452e+02 1.000000000000000021e-03
9.104929398253392492e+02 1.778279410038922752e-03
9.495575106674832568e+02 3.162277660168379394e-03
9.889911515054159281e+02 5.623413251903490971e-03
1.029609001071031344e+03 1.000000000000000021e-02
1.071354263807760617e+03 1.778279410038922925e-02
1.115565377670385715e+03 3.162277660168379134e-02
1.165219981074500993e+03 5.623413251903491145e-02
1.224333218722566016e+03 1.000000000000000056e-01
1.298574094050625490e+03 1.778279410038922925e-01
1.403902497304484996e+03 3.162277660168379412e-01
1.555441466502338017e+03 5.623413251903490728e-01
1.766252638123982251e+03 1.000000000000000000e+00
2.034779698924103513e+03 1.778279410038922759e+00
2.322683066078591310e+03 3.162277660168379523e+00
2.604512787978865163e+03 5.623413251903491172e+00
2.880484252329451465e+03 1.000000000000000000e+01
3.152641826379341637e+03 1.778279410038922848e+01
3.429306709999765189e+03 3.162277660168379256e+01
3.717242054198408368e+03 5.623413251903490817e+01
4.024043847835873748e+03 1.000000000000000000e+02
4.353733635666710143e+03 1.778279410038922776e+02
4.721920744691178697e+03 3.162277660168379612e+02
