# Temperature (K), Pressure (bars)
1.348410671206409688e+03 9.999999999999999547e-07
1.435649216615059231e+03 1.778279410038922901e-06
1.522887762023983669e+03 3.162277660168379191e-06
1.600347965567387973e+03 5.623413251903491208e-06
1.663548486365168628e+03 1.000000000000000082e-05
1.719925682991299709e+03 1.778279410038922901e-05
1.773237416048797058e+03 3.162277660168379530e-05
1.827578254705042809e+03 5.623413251903490700e-05
1.884722814559606149e+03 1.000000000000000048e-04
1.942854187461580977e+03 1.778279410038922698e-04
2.003453274454567691e+03 3.162277660168379394e-04
2.068497556749302021e+03 5.623413251903490971e-04
2.140632038186494356e+03 1.000000000000000021e-03
2.227230125995642538e+03 1.778279410038922752e-03
2.333389867785574097e+03 3.162277660168379394e-03
2.452645172300266950e+03 5.623413251903490971e-03
2.579325438410742208e+03 1.000000000000000021e-02
2.713979168471973480e+03 1.778279410038922925e-02
2.858070118443991305e+03 3.162277660168379134e-02
3.014032102640619087e+03 5.623413251903491145e-02
3.184934798152678923e+03 1.000000000000000056e-01
3.373582821885885096e+03 1.778279410038922925e-01
3.582215505127453980e+03 3.162277660168379412e-01
3.814492736291543679e+03 5.623413251903490728e-01
4.078739970550645012e+03 1.000000000000000000e+00
4.390567226408772513e+03 1.778279410038922759e+00
4.756651069764185195e+03 3.162277660168379523e+00
5.239165873116962757e+03 5.623413251903491172e+00
5.919517750813923158e+03 1.000000000000000000e+01
6.921866727697080023e+03 1.778279410038922848e+01
8.407019477532832752e+03 3.162277660168379256e+01
1.027464474155093012e+04 5.623413251903490817e+01
1.249752870745341534e+04 1.000000000000000000e+02
1.521030060557472279e+04 1.778279410038922776e+02
1.844337001161124499e+04 3.162277660168379612e+02
