# Temperature (K), Pressure (bars)
9.756930953610664119e+02 1.778279410038922901e-05
1.029657208971649197e+03 3.162277660168379530e-05
1.083621325331406297e+03 5.623413251903490700e-05
1.138755975128949331e+03 1.000000000000000048e-04
1.194608933544920092e+03 1.778279410038922698e-04
1.252454896985552523e+03 3.162277660168379394e-04
1.319653862019517419e+03 5.623413251903490971e-04
1.395562512192834674e+03 1.000000000000000021e-03
1.475836202364860810e+03 1.778279410038922752e-03
1.566292796790977491e+03 3.162277660168379394e-03
1.653912970430328642e+03 5.623413251903490971e-03
1.730541325524660124e+03 1.000000000000000021e-02
1.809294785455422016e+03 1.778279410038922925e-02
1.900035863385611719e+03 3.162277660168379134e-02
2.002775728746931463e+03 5.623413251903491145e-02
2.140327750534423558e+03 1.000000000000000056e-01
2.337164398750333476e+03 1.778279410038922925e-01
2.549088036080411257e+03 3.162277660168379412e-01
2.746027489281748785e+03 5.623413251903490728e-01
2.941902009377468403e+03 1.000000000000000000e+00
3.141281885873775082e+03 1.778279410038922759e+00
3.347206634072530960e+03 3.162277660168379523e+00
3.563645993705896672e+03 5.623413251903491172e+00
3.795505513026142125e+03 1.000000000000000000e+01
4.048188990164645929e+03 1.778279410038922848e+01
4.329788461574075882e+03 3.162277660168379256e+01
4.646127317965800103e+03 5.623413251903490817e+01
5.005864271832489976e+03 1.000000000000000000e+02
5.413539930094924784e+03 1.778279410038922776e+02
5.896559525052961362e+03 3.162277660168379612e+02
