# Temperature (K), Pressure (bars)
1.639922657444497190e+03 9.999999999999999547e-07
1.653104259438242934e+03 1.778279410038922901e-06
1.666285861431989133e+03 3.162277660168379191e-06
1.685530540501054475e+03 5.623413251903491208e-06
1.713934357454467772e+03 1.000000000000000082e-05
1.748671740338180143e+03 1.778279410038922901e-05
1.788139761565563958e+03 3.162277660168379530e-05
1.833196898337987932e+03 5.623413251903490700e-05
1.882331139751935325e+03 1.000000000000000048e-04
1.934449040634590574e+03 1.778279410038922698e-04
1.989848204748610215e+03 3.162277660168379394e-04
2.048452741872404204e+03 5.623413251903490971e-04
2.111784518051998930e+03 1.000000000000000021e-03
2.179194337458707651e+03 1.778279410038922752e-03
2.258464469402715167e+03 3.162277660168379394e-03
2.362281551377931009e+03 5.623413251903490971e-03
2.481238259510849730e+03 1.000000000000000021e-02
2.605672749790686794e+03 1.778279410038922925e-02
2.738284658309200950e+03 3.162277660168379134e-02
2.880278597547236132e+03 5.623413251903491145e-02
3.033340504222358959e+03 1.000000000000000056e-01
3.199712444819945176e+03 1.778279410038922925e-01
3.381824416913365894e+03 3.162277660168379412e-01
3.581693503939289258e+03 5.623413251903490728e-01
3.801560536933395724e+03 1.000000000000000000e+00
4.045912296346180938e+03 1.778279410038922759e+00
4.323015765780914080e+03 3.162277660168379523e+00
4.645851615535498240e+03 5.623413251903491172e+00
5.027957460065853411e+03 1.000000000000000000e+01
5.508036162522459563e+03 1.778279410038922848e+01
6.142177122055602922e+03 3.162277660168379256e+01
7.030392889346970151e+03 5.623413251903490817e+01
8.333155869077860189e+03 1.000000000000000000e+02
1.000000000000000000e+04 1.778279410038922776e+02
1.000000000000000000e+04 3.162277660168379612e+02
