# Temperature (K), Pressure (bars)
9.059707089388873555e+02 5.623413251903490700e-05
9.602043687003308605e+02 1.000000000000000048e-04
1.014438029974848178e+03 1.778279410038922698e-04
1.067145552141366352e+03 3.162277660168379394e-04
1.119897140058295236e+03 5.623413251903490971e-04
1.174323054304929201e+03 1.000000000000000021e-03
1.231846885409034940e+03 1.778279410038922752e-03
1.295216709872659521e+03 3.162277660168379394e-03
1.366996657011169191e+03 5.623413251903490971e-03
1.454490623767448142e+03 1.000000000000000021e-02
1.568109483349687935e+03 1.778279410038922925e-02
1.739894761100057849e+03 3.162277660168379134e-02
1.980275866815657082e+03 5.623413251903491145e-02
2.227179848591238169e+03 1.000000000000000056e-01
2.445142949739827145e+03 1.778279410038922925e-01
2.647040055175076304e+03 3.162277660168379412e-01
2.840510440152726915e+03 5.623413251903490728e-01
3.031734135147922188e+03 1.000000000000000000e+00
3.225912344140079313e+03 1.778279410038922759e+00
3.428062210082681759e+03 3.162277660168379523e+00
3.643058902657882300e+03 5.623413251903491172e+00
3.875700337448949085e+03 1.000000000000000000e+01
4.131110008677758742e+03 1.778279410038922848e+01
4.415251790995484953e+03 3.162277660168379256e+01
4.735946301425784441e+03 5.623413251903490817e+01
5.107923094969058184e+03 1.000000000000000000e+02
5.539344026370784377e+03 1.778279410038922776e+02
6.047557417368645474e+03 3.162277660168379612e+02
