# Temperature (K), Pressure (bars)
2.416261109812540781e+03 9.999999999999999547e-07
2.440164596073496341e+03 1.778279410038922901e-06
2.464068082334451447e+03 3.162277660168379191e-06
2.490740055112103164e+03 5.623413251903491208e-06
2.518410270687590128e+03 1.000000000000000082e-05
2.545485910302744742e+03 1.778279410038922901e-05
2.572397236619217438e+03 3.162277660168379530e-05
2.598639321789646146e+03 5.623413251903490700e-05
2.623079946801310143e+03 1.000000000000000048e-04
2.643909658764015148e+03 1.778279410038922698e-04
2.658945264738932110e+03 3.162277660168379394e-04
2.669654073249066187e+03 5.623413251903490971e-04
2.684407990675961628e+03 1.000000000000000021e-03
2.713638705558232232e+03 1.778279410038922752e-03
2.761985013276722839e+03 3.162277660168379394e-03
2.828271824692108112e+03 5.623413251903490971e-03
2.911854010660219956e+03 1.000000000000000021e-02
3.012998462860683958e+03 1.778279410038922925e-02
3.135799496703905334e+03 3.162277660168379134e-02
3.286397951959505463e+03 5.623413251903491145e-02
3.465139345238405440e+03 1.000000000000000056e-01
3.671488168343508278e+03 1.778279410038922925e-01
3.923520116596687785e+03 3.162277660168379412e-01
4.222298854730454877e+03 5.623413251903490728e-01
4.625937638882869578e+03 1.000000000000000000e+00
5.244313561858525645e+03 1.778279410038922759e+00
6.254607932427774358e+03 3.162277660168379523e+00
7.719468197123846039e+03 5.623413251903491172e+00
9.430988878781854510e+03 1.000000000000000000e+01
1.000000000000000000e+04 1.778279410038922848e+01
1.000000000000000000e+04 3.162277660168379256e+01
1.000000000000000000e+04 5.623413251903490817e+01
1.000000000000000000e+04 1.000000000000000000e+02
1.000000000000000000e+04 1.778279410038922776e+02
1.000000000000000000e+04 3.162277660168379612e+02
