# Temperature (K), Pressure (bars)
8.860785825149935135e+02 1.000000000000000021e-03
9.309326026829538705e+02 1.778279410038922752e-03
9.757866238049787171e+02 3.162277660168379394e-03
1.020581579329718693e+03 5.623413251903490971e-03
1.065477354353287183e+03 1.000000000000000021e-02
1.111186864920805419e+03 1.778279410038922925e-02
1.158772862596060349e+03 3.162277660168379134e-02
1.210448882291248538e+03 5.623413251903491145e-02
1.270141218914966203e+03 1.000000000000000056e-01
1.343929707278351316e+03 1.778279410038922925e-01
1.447922133427580320e+03 3.162277660168379412e-01
1.601297697390431949e+03 5.623413251903490728e-01
1.805113463059974265e+03 1.000000000000000000e+00
2.056320534123446578e+03 1.778279410038922759e+00
2.341685309770479762e+03 3.162277660168379523e+00
2.627875221280064579e+03 5.623413251903491172e+00
2.902443103822402009e+03 1.000000000000000000e+01
3.173428356259153588e+03 1.778279410038922848e+01
3.449328472092844095e+03 3.162277660168379256e+01
3.736964915317790656e+03 5.623413251903490817e+01
4.043976506779941246e+03 1.000000000000000000e+02
4.374433279578542169e+03 1.778279410038922776e+02
4.743845883742760634e+03 3.162277660168379612e+02
