# Temperature (K), Pressure (bars)
9.673498822810786351e+02 3.162277660168379394e-03
1.007682955101494372e+03 5.623413251903490971e-03
1.048016150694698354e+03 1.000000000000000021e-02
1.087320702852911154e+03 1.778279410038922925e-02
1.126764702148861261e+03 3.162277660168379134e-02
1.168101230033007596e+03 5.623413251903491145e-02
1.212482934920877824e+03 1.000000000000000056e-01
1.262078840312620287e+03 1.778279410038922925e-01
1.320102553724594145e+03 3.162277660168379412e-01
1.391583506507211268e+03 5.623413251903490728e-01
1.493497495841194905e+03 1.000000000000000000e+00
1.635912671970791507e+03 1.778279410038922759e+00
1.827946245124719326e+03 3.162277660168379523e+00
2.084291609358505866e+03 5.623413251903491172e+00
2.380514989923387475e+03 1.000000000000000000e+01
2.683637632976095574e+03 1.778279410038922848e+01
2.987573907687108658e+03 3.162277660168379256e+01
3.292995543602903126e+03 5.623413251903490817e+01
3.605561652305347707e+03 1.000000000000000000e+02
3.928001337897001576e+03 1.778279410038922776e+02
4.278105434757901094e+03 3.162277660168379612e+02
