# Temperature (K), Pressure (bars)
9.409644730748448183e+02 3.162277660168379394e-03
9.850892082531307778e+02 5.623413251903490971e-03
1.029213945220762980e+03 1.000000000000000021e-02
1.073012486048717165e+03 1.778279410038922925e-02
1.116941993624149518e+03 3.162277660168379134e-02
1.161379286136834480e+03 5.623413251903491145e-02
1.207769599294496402e+03 1.000000000000000056e-01
1.259322605047850629e+03 1.778279410038922925e-01
1.318451501543097038e+03 3.162277660168379412e-01
1.391892700788918091e+03 5.623413251903490728e-01
1.491924181766113634e+03 1.000000000000000000e+00
1.628965107691043841e+03 1.778279410038922759e+00
1.801581142482642917e+03 3.162277660168379523e+00
2.026214094852893368e+03 5.623413251903491172e+00
2.317969798812680892e+03 1.000000000000000000e+01
2.632162874684598137e+03 1.778279410038922848e+01
2.940964126942164512e+03 3.162277660168379256e+01
3.250788112107385132e+03 5.623413251903490817e+01
3.567002883590852889e+03 1.000000000000000000e+02
3.894624678591235806e+03 1.778279410038922776e+02
4.247658442956198996e+03 3.162277660168379612e+02
