# Temperature (K), Pressure (bars)
1.678765363567029226e+03 3.162277660168379530e-05
1.696007588175608362e+03 5.623413251903490700e-05
1.713249815814287786e+03 1.000000000000000048e-04
1.736445408468835922e+03 1.778279410038922698e-04
1.764608315947123856e+03 3.162277660168379394e-04
1.797814690663530200e+03 5.623413251903490971e-04
1.834131618702161404e+03 1.000000000000000021e-03
1.869421468205099472e+03 1.778279410038922752e-03
1.903522290145677971e+03 3.162277660168379394e-03
1.937358501415376395e+03 5.623413251903490971e-03
1.971727407092497515e+03 1.000000000000000021e-02
2.008389775706220917e+03 1.778279410038922925e-02
2.047388267251856178e+03 3.162277660168379134e-02
2.091173008001336257e+03 5.623413251903491145e-02
2.140947839735510570e+03 1.000000000000000056e-01
2.205512959847593265e+03 1.778279410038922925e-01
2.283604689776670511e+03 3.162277660168379412e-01
2.408074491087701517e+03 5.623413251903490728e-01
2.621264258042601796e+03 1.000000000000000000e+00
2.858527646021304918e+03 1.778279410038922759e+00
3.076975193378137192e+03 3.162277660168379523e+00
3.299637019344827422e+03 5.623413251903491172e+00
3.532454215165613732e+03 1.000000000000000000e+01
3.779876973371466192e+03 1.778279410038922848e+01
4.048660092909986815e+03 3.162277660168379256e+01
4.345048648910346856e+03 5.623413251903490817e+01
4.676256389989604031e+03 1.000000000000000000e+02
5.045650773661765015e+03 1.778279410038922776e+02
5.474897854054549498e+03 3.162277660168379612e+02
