# Temperature (K), Pressure (bars)
1.019259480685741551e+03 5.623413251903491208e-06
1.076092950967524075e+03 1.000000000000000082e-05
1.132926423444104330e+03 1.778279410038922901e-05
1.187972353733119917e+03 3.162277660168379530e-05
1.241823222058721740e+03 5.623413251903490700e-05
1.294458308265739561e+03 1.000000000000000048e-04
1.349835243832647620e+03 1.778279410038922698e-04
1.417099198055357647e+03 3.162277660168379394e-04
1.497443586250583849e+03 5.623413251903490971e-04
1.587012290222099409e+03 1.000000000000000021e-03
1.688654132967353462e+03 1.778279410038922752e-03
1.794632689475947700e+03 3.162277660168379394e-03
1.894818252547659313e+03 5.623413251903490971e-03
1.990920618266428164e+03 1.000000000000000021e-02
2.108349536734376670e+03 1.778279410038922925e-02
2.270215098665835285e+03 3.162277660168379134e-02
2.444776987474412635e+03 5.623413251903491145e-02
2.610207346489856263e+03 1.000000000000000056e-01
2.777012089655674117e+03 1.778279410038922925e-01
2.948592235693891325e+03 3.162277660168379412e-01
3.127129092358512935e+03 5.623413251903490728e-01
3.314123785903053886e+03 1.000000000000000000e+00
3.511582114341900251e+03 1.778279410038922759e+00
3.723011637362590591e+03 3.162277660168379523e+00
3.953150359182722241e+03 5.623413251903491172e+00
4.207572617718594302e+03 1.000000000000000000e+01
4.492979303671118942e+03 1.778279410038922848e+01
4.818265803407269232e+03 3.162277660168379256e+01
5.198955328012636528e+03 5.623413251903490817e+01
5.647689981662060745e+03 1.000000000000000000e+02
6.187195732241429141e+03 1.778279410038922776e+02
6.850878224699137718e+03 3.162277660168379612e+02
