# Temperature (K), Pressure (bars)
9.506959533525030110e+02 5.623413251903490971e-04
1.000354574506701283e+03 1.000000000000000021e-03
1.050013197231834738e+03 1.778279410038922752e-03
1.098053646777799941e+03 3.162277660168379394e-03
1.144084764456609491e+03 5.623413251903490971e-03
1.188231293212963010e+03 1.000000000000000021e-02
1.233234576002148970e+03 1.778279410038922925e-02
1.283620878371596291e+03 3.162277660168379134e-02
1.345320774763797317e+03 5.623413251903491145e-02
1.419912559209954907e+03 1.000000000000000056e-01
1.504812591602441671e+03 1.778279410038922925e-01
1.603354269063241190e+03 3.162277660168379412e-01
1.718223601669578102e+03 5.623413251903490728e-01
1.846959344236845254e+03 1.000000000000000000e+00
2.006756368467095854e+03 1.778279410038922759e+00
2.237319653073406243e+03 3.162277660168379523e+00
2.526826333101791079e+03 5.623413251903491172e+00
2.818162884632366513e+03 1.000000000000000000e+01
3.096498550499344674e+03 1.778279410038922848e+01
3.376792647516213037e+03 3.162277660168379256e+01
3.666544482684982540e+03 5.623413251903490817e+01
3.973625277806856957e+03 1.000000000000000000e+02
4.302391561342795285e+03 1.778279410038922776e+02
4.668073282168595142e+03 3.162277660168379612e+02
