# Temperature (K), Pressure (bars)
1.133573646899162213e+03 1.778279410038922901e-05
1.159441426933884259e+03 3.162277660168379530e-05
1.190926064262858745e+03 5.623413251903490700e-05
1.227963301148557548e+03 1.000000000000000048e-04
1.269181654524078567e+03 1.778279410038922698e-04
1.314140246187157118e+03 3.162277660168379394e-04
1.363395858644320015e+03 5.623413251903490971e-04
1.418316476696469635e+03 1.000000000000000021e-03
1.479257556313109944e+03 1.778279410038922752e-03
1.546322510696742484e+03 3.162277660168379394e-03
1.622953954977497688e+03 5.623413251903490971e-03
1.713938590955734526e+03 1.000000000000000021e-02
1.823459331463388480e+03 1.778279410038922925e-02
1.972083717047967184e+03 3.162277660168379134e-02
2.165872598068973275e+03 5.623413251903491145e-02
2.367306663254040359e+03 1.000000000000000056e-01
2.555423651035937837e+03 1.778279410038922925e-01
2.737901460285921530e+03 3.162277660168379412e-01
2.920665328877831143e+03 5.623413251903490728e-01
3.107967923361034991e+03 1.000000000000000000e+00
3.302819185512119930e+03 1.778279410038922759e+00
3.508087732287203835e+03 3.162277660168379523e+00
3.727485176831970875e+03 5.623413251903491172e+00
3.965712213253533264e+03 1.000000000000000000e+01
4.228239148066877533e+03 1.778279410038922848e+01
4.521577851418345745e+03 3.162277660168379256e+01
4.854290117170057783e+03 5.623413251903490817e+01
5.241899498543919435e+03 1.000000000000000000e+02
5.695025444873880588e+03 1.778279410038922776e+02
6.233522633288306679e+03 3.162277660168379612e+02
