# Temperature (K), Pressure (bars)
2.351600156505217456e+03 9.999999999999999547e-07
2.363932863121232003e+03 1.778279410038922901e-06
2.376265569737247006e+03 3.162277660168379191e-06
2.402431867761128615e+03 5.623413251903491208e-06
2.438671208790608034e+03 1.000000000000000082e-05
2.478642779199796678e+03 1.778279410038922901e-05
2.522207041347224276e+03 3.162277660168379530e-05
2.568580759292715356e+03 5.623413251903490700e-05
2.615777539400810383e+03 1.000000000000000048e-04
2.661805688053419999e+03 1.778279410038922698e-04
2.704459341936725650e+03 3.162277660168379394e-04
2.742428780870063747e+03 5.623413251903490971e-04
2.776821040591805740e+03 1.000000000000000021e-03
2.811897495807778796e+03 1.778279410038922752e-03
2.854062160340707123e+03 3.162277660168379394e-03
2.908332703563069117e+03 5.623413251903490971e-03
2.978071046769338864e+03 1.000000000000000021e-02
3.061369067707213162e+03 1.778279410038922925e-02
3.160167450282714526e+03 3.162277660168379134e-02
3.292480989663899436e+03 5.623413251903491145e-02
3.470553028978529710e+03 1.000000000000000056e-01
3.681804941139040693e+03 1.778279410038922925e-01
3.942980603161093768e+03 3.162277660168379412e-01
4.251174926646513086e+03 5.623413251903490728e-01
4.675003968783524215e+03 1.000000000000000000e+00
5.337289651064421378e+03 1.778279410038922759e+00
6.424058125896484853e+03 3.162277660168379523e+00
7.940900320376509626e+03 5.623413251903491172e+00
9.657618450122916329e+03 1.000000000000000000e+01
1.000000000000000000e+04 1.778279410038922848e+01
1.000000000000000000e+04 3.162277660168379256e+01
1.000000000000000000e+04 5.623413251903490817e+01
1.000000000000000000e+04 1.000000000000000000e+02
1.000000000000000000e+04 1.778279410038922776e+02
1.000000000000000000e+04 3.162277660168379612e+02
