# Temperature (K), Pressure (bars)
1.408894969081170530e+03 9.999999999999999547e-07
1.421131611037206312e+03 1.778279410038922901e-06
1.433368252994504701e+03 3.162277660168379191e-06
1.449327965609505554e+03 5.623413251903491208e-06
1.471763049625551503e+03 1.000000000000000082e-05
1.502822976562083795e+03 1.778279410038922901e-05
1.545123785942840641e+03 3.162277660168379530e-05
1.600813702520843890e+03 5.623413251903490700e-05
1.663075784359942645e+03 1.000000000000000048e-04
1.726551082013411360e+03 1.778279410038922698e-04
1.793332269949702550e+03 3.162277660168379394e-04
1.864147763373681300e+03 5.623413251903490971e-04
1.940534048711953801e+03 1.000000000000000021e-03
2.022531305187743328e+03 1.778279410038922752e-03
2.119397104446058165e+03 3.162277660168379394e-03
2.242154887735159718e+03 5.623413251903490971e-03
2.377095348465304596e+03 1.000000000000000021e-02
2.513121513261217842e+03 1.778279410038922925e-02
2.653720136703480875e+03 3.162277660168379134e-02
2.800766535668998586e+03 5.623413251903491145e-02
2.956081228330061094e+03 1.000000000000000056e-01
3.121676138725562851e+03 1.778279410038922925e-01
3.299632726093404472e+03 3.162277660168379412e-01
3.491714017563438574e+03 5.623413251903490728e-01
3.699854175160917293e+03 1.000000000000000000e+00
3.927666478935215309e+03 1.778279410038922759e+00
4.181387329598894212e+03 3.162277660168379523e+00
4.469960421989243514e+03 5.623413251903491172e+00
4.803563419368765608e+03 1.000000000000000000e+01
5.204941906951500641e+03 1.778279410038922848e+01
5.704054542116026823e+03 3.162277660168379256e+01
6.352288098197390354e+03 5.623413251903490817e+01
7.237780888124936610e+03 1.000000000000000000e+02
8.502641486900594828e+03 1.778279410038922776e+02
1.023166525183244084e+04 3.162277660168379612e+02
