# Temperature (K), Pressure (bars)
2.198626224865069616e+03 9.999999999999999547e-07
2.211238070960031109e+03 1.778279410038922901e-06
2.223849917054992147e+03 3.162277660168379191e-06
2.243829208926922092e+03 5.623413251903491208e-06
2.267415274878881064e+03 1.000000000000000082e-05
2.298063696796591103e+03 1.778279410038922901e-05
2.335137496936584284e+03 3.162277660168379530e-05
2.380140956741334321e+03 5.623413251903490700e-05
2.436530720899805146e+03 1.000000000000000048e-04
2.502329860238489800e+03 1.778279410038922698e-04
2.575813955264184187e+03 3.162277660168379394e-04
2.656277709489339031e+03 5.623413251903490971e-04
2.743326491151822665e+03 1.000000000000000021e-03
2.834355642326293946e+03 1.778279410038922752e-03
2.924077515024600416e+03 3.162277660168379394e-03
3.008250951711390371e+03 5.623413251903490971e-03
3.080291393029812753e+03 1.000000000000000021e-02
3.141282350329590372e+03 1.778279410038922925e-02
3.174296991632985737e+03 3.162277660168379134e-02
3.214612909882819622e+03 5.623413251903491145e-02
3.348664813587795834e+03 1.000000000000000056e-01
3.534710769620163319e+03 1.778279410038922925e-01
3.747848645729901818e+03 3.162277660168379412e-01
4.005004966155692728e+03 5.623413251903490728e-01
4.299987648009891927e+03 1.000000000000000000e+00
4.679146916234677519e+03 1.778279410038922759e+00
5.213529339721776523e+03 3.162277660168379523e+00
6.056398567439738144e+03 5.623413251903491172e+00
7.365209713837813069e+03 1.000000000000000000e+01
9.057540361121175010e+03 1.778279410038922848e+01
1.000000000000000000e+04 3.162277660168379256e+01
1.000000000000000000e+04 5.623413251903490817e+01
1.000000000000000000e+04 1.000000000000000000e+02
1.000000000000000000e+04 1.778279410038922776e+02
1.000000000000000000e+04 3.162277660168379612e+02
