# Temperature (K), Pressure (bars)
8.116446335452080802e+02 1.778279410038922901e-05
8.728868766387880669e+02 3.162277660168379530e-05
9.341291217453267564e+02 5.623413251903490700e-05
9.911866190538236197e+02 1.000000000000000048e-04
1.046203556506625546e+03 1.778279410038922698e-04
1.103453597121583016e+03 3.162277660168379394e-04
1.164977151852385077e+03 5.623413251903490971e-04
1.221659145065425719e+03 1.000000000000000021e-03
1.274140378911017251e+03 1.778279410038922752e-03
1.365934248496714190e+03 3.162277660168379394e-03
1.524791445074187322e+03 5.623413251903490971e-03
1.710095738497696402e+03 1.000000000000000021e-02
1.861841875237706518e+03 1.778279410038922925e-02
1.972672935232260897e+03 3.162277660168379134e-02
2.071655874571029472e+03 5.623413251903491145e-02
2.193410354717908831e+03 1.000000000000000056e-01
2.363792597686804584e+03 1.778279410038922925e-01
2.558918168071575565e+03 3.162277660168379412e-01
2.751912933528606118e+03 5.623413251903490728e-01
2.945690882162429261e+03 1.000000000000000000e+00
3.144390540395732387e+03 1.778279410038922759e+00
3.350903156346325886e+03 3.162277660168379523e+00
3.568434064304587082e+03 5.623413251903491172e+00
3.801349194077082302e+03 1.000000000000000000e+01
4.054982072322594377e+03 1.778279410038922848e+01
4.337213237074600329e+03 3.162277660168379256e+01
4.654202608194457753e+03 5.623413251903490817e+01
5.014599161120509052e+03 1.000000000000000000e+02
5.422435785515091084e+03 1.778279410038922776e+02
5.904875552659819732e+03 3.162277660168379612e+02
