# Temperature (K), Pressure (bars)
9.419099259481711215e+02 3.162277660168379394e-04
9.976132643345310953e+02 5.623413251903490971e-04
1.053316604303279064e+03 1.000000000000000021e-03
1.107530262090702081e+03 1.778279410038922752e-03
1.160520426688162615e+03 3.162277660168379394e-03
1.214529390381295570e+03 5.623413251903490971e-03
1.271862102835910946e+03 1.000000000000000021e-02
1.341370191088101137e+03 1.778279410038922925e-02
1.448385164387252189e+03 3.162277660168379134e-02
1.627993709603192883e+03 5.623413251903491145e-02
1.873499353538162495e+03 1.000000000000000056e-01
2.130269613729274624e+03 1.778279410038922925e-01
2.369103049566997925e+03 3.162277660168379412e-01
2.592237515245713439e+03 5.623413251903490728e-01
2.804202632488408199e+03 1.000000000000000000e+00
3.011498100891176819e+03 1.778279410038922759e+00
3.220237525541991999e+03 3.162277660168379523e+00
3.436273553776217796e+03 5.623413251903491172e+00
3.665129664929928367e+03 1.000000000000000000e+01
3.912246049025228785e+03 1.778279410038922848e+01
4.185699562548600625e+03 3.162277660168379256e+01
4.490225211839922849e+03 5.623413251903490817e+01
4.833544324903378765e+03 1.000000000000000000e+02
5.219472027354172496e+03 1.778279410038922776e+02
5.671605562543155429e+03 3.162277660168379612e+02
