# Temperature (K), Pressure (bars)
9.917223270486607589e+02 1.000000000000000048e-04
1.046437383078642142e+03 1.778279410038922698e-04
1.101152440427040801e+03 3.162277660168379394e-04
1.151272611531642951e+03 5.623413251903490971e-04
1.198321095086669857e+03 1.000000000000000021e-03
1.246400094639496274e+03 1.778279410038922752e-03
1.299841595365483727e+03 3.162277660168379394e-03
1.363635230590804440e+03 5.623413251903490971e-03
1.445902916845345999e+03 1.000000000000000021e-02
1.544385419002362823e+03 1.778279410038922925e-02
1.649756290934848266e+03 3.162277660168379134e-02
1.760186351697687542e+03 5.623413251903491145e-02
1.877876569580536852e+03 1.000000000000000056e-01
2.002584589234568057e+03 1.778279410038922925e-01
2.163525763295121578e+03 3.162277660168379412e-01
2.387792346992847342e+03 5.623413251903490728e-01
2.626903392998029176e+03 1.000000000000000000e+00
2.848501084189209905e+03 1.778279410038922759e+00
3.067675019423675622e+03 3.162277660168379523e+00
3.290682146704699335e+03 5.623413251903491172e+00
3.522550045330900957e+03 1.000000000000000000e+01
3.768746578201295961e+03 1.778279410038922848e+01
4.036958752976955111e+03 3.162277660168379256e+01
4.332620296286214398e+03 5.623413251903490817e+01
4.662805008529894621e+03 1.000000000000000000e+02
5.031164368182017824e+03 1.778279410038922776e+02
5.458427895294234986e+03 3.162277660168379612e+02
