# Temperature (K), Pressure (bars)
1.620567196577847199e+03 9.999999999999999547e-07
1.626093861101026278e+03 1.778279410038922901e-06
1.631620525624418406e+03 3.162277660168379191e-06
1.641504740308858800e+03 5.623413251903491208e-06
1.656769998676070600e+03 1.000000000000000082e-05
1.678828078882193267e+03 1.778279410038922901e-05
1.709576151705389293e+03 3.162277660168379530e-05
1.748454921278228767e+03 5.623413251903490700e-05
1.795585589172346317e+03 1.000000000000000048e-04
1.850420345679561024e+03 1.778279410038922698e-04
1.911324643483202181e+03 3.162277660168379394e-04
1.976856305055147914e+03 5.623413251903490971e-04
2.047732754332431341e+03 1.000000000000000021e-03
2.122851861444281440e+03 1.778279410038922752e-03
2.209444300537877098e+03 3.162277660168379394e-03
2.318918316786483047e+03 5.623413251903490971e-03
2.441015145784963352e+03 1.000000000000000021e-02
2.566596054768421709e+03 1.778279410038922925e-02
2.698898205360360862e+03 3.162277660168379134e-02
2.839449161284551337e+03 5.623413251903491145e-02
2.989858479398367308e+03 1.000000000000000056e-01
3.152045097783897745e+03 1.778279410038922925e-01
3.328278490111746578e+03 3.162277660168379412e-01
3.520921338879151335e+03 5.623413251903490728e-01
3.732392587612289390e+03 1.000000000000000000e+00
3.966030546647281881e+03 1.778279410038922759e+00
4.227798837251900295e+03 3.162277660168379523e+00
4.527273908798909360e+03 5.623413251903491172e+00
4.874622779522320343e+03 1.000000000000000000e+01
5.297478389168655667e+03 1.778279410038922848e+01
5.832555346286582790e+03 3.162277660168379256e+01
6.541969857310401494e+03 5.623413251903490817e+01
7.527041309159274533e+03 1.000000000000000000e+02
8.942700808417021108e+03 1.778279410038922776e+02
1.079580875880588428e+04 3.162277660168379612e+02
