# Temperature (K), Pressure (bars)
8.140063569737322950e+02 1.778279410038922901e-05
8.693127420790574433e+02 3.162277660168379530e-05
9.246191295374762831e+02 5.623413251903490700e-05
9.801350989148069175e+02 1.000000000000000048e-04
1.034320787831846474e+03 1.778279410038922698e-04
1.082752828726609096e+03 3.162277660168379394e-04
1.126606955016482061e+03 5.623413251903490971e-04
1.170598954857813851e+03 1.000000000000000021e-03
1.213391148442593931e+03 1.778279410038922752e-03
1.251226241867550698e+03 3.162277660168379394e-03
1.284417591478711984e+03 5.623413251903490971e-03
1.316852448969604438e+03 1.000000000000000021e-02
1.353003485775362378e+03 1.778279410038922925e-02
1.388851830509440106e+03 3.162277660168379134e-02
1.428943811219712188e+03 5.623413251903491145e-02
1.502147478787385353e+03 1.000000000000000056e-01
1.634631145993297650e+03 1.778279410038922925e-01
1.806177684883420852e+03 3.162277660168379412e-01
2.012975024042614677e+03 5.623413251903490728e-01
2.278450997972583082e+03 1.000000000000000000e+00
2.553279445853115249e+03 1.778279410038922759e+00
2.802608057061438558e+03 3.162277660168379523e+00
3.044172673809893695e+03 5.623413251903491172e+00
3.285802326150404951e+03 1.000000000000000000e+01
3.534884862234633601e+03 1.778279410038922848e+01
3.800290943040022285e+03 3.162277660168379256e+01
4.087410818691673285e+03 5.623413251903490817e+01
4.402987907470910613e+03 1.000000000000000000e+02
4.750226291623407633e+03 1.778279410038922776e+02
5.147215273235425229e+03 3.162277660168379612e+02
