# Temperature (K), Pressure (bars)
8.942758399078536513e+02 5.623413251903490971e-04
9.345418307863537848e+02 1.000000000000000021e-03
9.748078225599301732e+02 1.778279410038922752e-03
1.016829898174101231e+03 3.162277660168379394e-03
1.060049659759012911e+03 5.623413251903490971e-03
1.104021198491302357e+03 1.000000000000000021e-02
1.149365120744338810e+03 1.778279410038922925e-02
1.198300757551371362e+03 3.162277660168379134e-02
1.253023207314227420e+03 5.623413251903491145e-02
1.318950021414524144e+03 1.000000000000000056e-01
1.422360205594141235e+03 1.778279410038922925e-01
1.587001491118678587e+03 3.162277660168379412e-01
1.812531239775667018e+03 5.623413251903490728e-01
2.082355882773753365e+03 1.000000000000000000e+00
2.360755971229226816e+03 1.778279410038922759e+00
2.627335783344409265e+03 3.162277660168379523e+00
2.884615070094842395e+03 5.623413251903491172e+00
3.137041555548305041e+03 1.000000000000000000e+01
3.392094825368085822e+03 1.778279410038922848e+01
3.659322106312611595e+03 3.162277660168379256e+01
3.944571076647148402e+03 5.623413251903490817e+01
4.254749201532839834e+03 1.000000000000000000e+02
4.593083559257663183e+03 1.778279410038922776e+02
4.976842458253503537e+03 3.162277660168379612e+02
