# Temperature (K), Pressure (bars)
1.061185481373425773e+03 3.162277660168379394e-04
1.107371984460779231e+03 5.623413251903490971e-04
1.153558484306091259e+03 1.000000000000000021e-03
1.190327460123408173e+03 1.778279410038922752e-03
1.221984280619393530e+03 3.162277660168379394e-03
1.253828947343619348e+03 5.623413251903490971e-03
1.285579383821878082e+03 1.000000000000000021e-02
1.317031908508045035e+03 1.778279410038922925e-02
1.347693477865240311e+03 3.162277660168379134e-02
1.381212948756982314e+03 5.623413251903491145e-02
1.435683371354153451e+03 1.000000000000000056e-01
1.520516641614457285e+03 1.778279410038922925e-01
1.626918597829565442e+03 3.162277660168379412e-01
1.758681465059163202e+03 5.623413251903490728e-01
1.914717863494678113e+03 1.000000000000000000e+00
2.120169999228520737e+03 1.778279410038922759e+00
2.399036025970330684e+03 3.162277660168379523e+00
2.691435878624077759e+03 5.623413251903491172e+00
2.962159316750696235e+03 1.000000000000000000e+01
3.229264630724181188e+03 1.778279410038922848e+01
3.502517362950631650e+03 3.162277660168379256e+01
3.789143060064507154e+03 5.623413251903490817e+01
4.096576218393993258e+03 1.000000000000000000e+02
4.428858626466104397e+03 1.778279410038922776e+02
4.801489066690957770e+03 3.162277660168379612e+02
