# Temperature (K), Pressure (bars)
8.784910390314917095e+02 1.000000000000000048e-04
9.320050271263892228e+02 1.778279410038922698e-04
9.855190148699094834e+02 3.162277660168379394e-04
1.033922988203182967e+03 5.623413251903490971e-04
1.081364708153403853e+03 1.000000000000000021e-03
1.129960117328250817e+03 1.778279410038922752e-03
1.176117790931406262e+03 3.162277660168379394e-03
1.218711803531037731e+03 5.623413251903490971e-03
1.259580516329437842e+03 1.000000000000000021e-02
1.300177046139590857e+03 1.778279410038922925e-02
1.341603430289941116e+03 3.162277660168379134e-02
1.388724191941542358e+03 5.623413251903491145e-02
1.445737744676026978e+03 1.000000000000000056e-01
1.510401341241388536e+03 1.778279410038922925e-01
1.587368904491801459e+03 3.162277660168379412e-01
1.723838223648215717e+03 5.623413251903490728e-01
1.954671800694599142e+03 1.000000000000000000e+00
2.231922185775483740e+03 1.778279410038922759e+00
2.508435631948299488e+03 3.162277660168379523e+00
2.777452484642534273e+03 5.623413251903491172e+00
3.039291145601663629e+03 1.000000000000000000e+01
3.300405717420129804e+03 1.778279410038922848e+01
3.570496633298223060e+03 3.162277660168379256e+01
3.856118220904486861e+03 5.623413251903490817e+01
4.164336982189513947e+03 1.000000000000000000e+02
4.498676787629352475e+03 1.778279410038922776e+02
4.875475899299841331e+03 3.162277660168379612e+02
