# Temperature (K), Pressure (bars)
9.390795660942737868e+02 1.000000000000000021e-03
9.821135548164830880e+02 1.778279410038922752e-03
1.025147543650952002e+03 3.162277660168379394e-03
1.066850716675621698e+03 5.623413251903490971e-03
1.109361522936655774e+03 1.000000000000000021e-02
1.153527904591300285e+03 1.778279410038922925e-02
1.200257982733093286e+03 3.162277660168379134e-02
1.250228544051745075e+03 5.623413251903491145e-02
1.306380055510702732e+03 1.000000000000000056e-01
1.371793030174759224e+03 1.778279410038922925e-01
1.460643706619953264e+03 3.162277660168379412e-01
1.607434763920077557e+03 5.623413251903490728e-01
1.811422347091852089e+03 1.000000000000000000e+00
2.055941786717577997e+03 1.778279410038922759e+00
2.339175883601499663e+03 3.162277660168379523e+00
2.628123827711658123e+03 5.623413251903491172e+00
2.902971983441058910e+03 1.000000000000000000e+01
3.174128625836967785e+03 1.778279410038922848e+01
3.450019953898177391e+03 3.162277660168379256e+01
3.737680987305535382e+03 5.623413251903490817e+01
4.044738105990901659e+03 1.000000000000000000e+02
4.375467445713077723e+03 1.778279410038922776e+02
4.745022555058999387e+03 3.162277660168379612e+02
