# Temperature (K), Pressure (bars)
1.323759863952466276e+03 9.999999999999999547e-07
1.390798940694816793e+03 1.778279410038922901e-06
1.457838017444611978e+03 3.162277660168379191e-06
1.531775445227742694e+03 5.623413251903491208e-06
1.595809777868842957e+03 1.000000000000000082e-05
1.649159142368174571e+03 1.778279410038922901e-05
1.700030957374450509e+03 3.162277660168379530e-05
1.748922369123503813e+03 5.623413251903490700e-05
1.800122778722816292e+03 1.000000000000000048e-04
1.854750355884093779e+03 1.778279410038922698e-04
1.910895423105998816e+03 3.162277660168379394e-04
1.969116958488619275e+03 5.623413251903490971e-04
2.032819600724575366e+03 1.000000000000000021e-03
2.102768021326005510e+03 1.778279410038922752e-03
2.187357614869473764e+03 3.162277660168379394e-03
2.299147251642407355e+03 5.623413251903490971e-03
2.426909703657750470e+03 1.000000000000000021e-02
2.559456333493244529e+03 1.778279410038922925e-02
2.699265579903677917e+03 3.162277660168379134e-02
2.847878243962343277e+03 5.623413251903491145e-02
3.007283959480989779e+03 1.000000000000000056e-01
3.179381180319992382e+03 1.778279410038922925e-01
3.365120712501550770e+03 3.162277660168379412e-01
3.565163210538295061e+03 5.623413251903490728e-01
3.782137665800750256e+03 1.000000000000000000e+00
4.021570234962736322e+03 1.778279410038922759e+00
4.291866505914544177e+03 3.162277660168379523e+00
4.604930030968551364e+03 5.623413251903491172e+00
4.975141085853339973e+03 1.000000000000000000e+01
5.434624679075939639e+03 1.778279410038922848e+01
6.032485033044426018e+03 3.162277660168379256e+01
6.859186121487634409e+03 5.623413251903490817e+01
8.065361934344093243e+03 1.000000000000000000e+02
9.751549095207714345e+03 1.778279410038922776e+02
1.182282173669438816e+04 3.162277660168379612e+02
