# Temperature (K), Pressure (bars)
2.227927137564941404e+03 9.999999999999999547e-07
2.273090318024343105e+03 1.778279410038922901e-06
2.318253499022458527e+03 3.162277660168379191e-06
2.361418621110374261e+03 5.623413251903491208e-06
2.401485820248803066e+03 1.000000000000000082e-05
2.437383681878795869e+03 1.778279410038922901e-05
2.469682268510665381e+03 3.162277660168379530e-05
2.500643660267125597e+03 5.623413251903490700e-05
2.533193076224885772e+03 1.000000000000000048e-04
2.570519566848753129e+03 1.778279410038922698e-04
2.615455699598970568e+03 3.162277660168379394e-04
2.670189032809377295e+03 5.623413251903490971e-04
2.736362202363746292e+03 1.000000000000000021e-03
2.814731323302429246e+03 1.778279410038922752e-03
2.905356896818155747e+03 3.162277660168379394e-03
3.006742645500814433e+03 5.623413251903490971e-03
3.118907353988247451e+03 1.000000000000000021e-02
3.242345653117664369e+03 1.778279410038922925e-02
3.389307276382814052e+03 3.162277660168379134e-02
3.608618552967141113e+03 5.623413251903491145e-02
3.899970323491802446e+03 1.000000000000000056e-01
4.352374371887080088e+03 1.778279410038922925e-01
5.137581436499074698e+03 3.162277660168379412e-01
6.302797942586699719e+03 5.623413251903490728e-01
7.797342302748260408e+03 1.000000000000000000e+00
9.304515301793499020e+03 1.778279410038922759e+00
1.080338276757631866e+04 3.162277660168379523e+00
1.256596869919592609e+04 5.623413251903491172e+00
1.480534342493132317e+04 1.000000000000000000e+01
1.764245400403734311e+04 1.778279410038922848e+01
2.122478385815310685e+04 3.162277660168379256e+01
2.571404724992221236e+04 5.623413251903490817e+01
3.128446598007838838e+04 1.000000000000000000e+02
3.808117645695118699e+04 1.778279410038922776e+02
4.618874540799768147e+04 3.162277660168379612e+02
