# Temperature (K), Pressure (bars)
1.236937425883973674e+03 1.000000000000000082e-05
1.271621043176196508e+03 1.778279410038922901e-05
1.306440155208367287e+03 3.162277660168379530e-05
1.345043614410189321e+03 5.623413251903490700e-05
1.387490259176810014e+03 1.000000000000000048e-04
1.434687088714952324e+03 1.778279410038922698e-04
1.485106243004597673e+03 3.162277660168379394e-04
1.545308277929795167e+03 5.623413251903490971e-04
1.626417994086587669e+03 1.000000000000000021e-03
1.711750329896484118e+03 1.778279410038922752e-03
1.785685519145288936e+03 3.162277660168379394e-03
1.856961185885419809e+03 5.623413251903490971e-03
1.932833617250250882e+03 1.000000000000000021e-02
2.017014172774729104e+03 1.778279410038922925e-02
2.115897089134338785e+03 3.162277660168379134e-02
2.250082726962210927e+03 5.623413251903491145e-02
2.424442151558293972e+03 1.000000000000000056e-01
2.605393027181435173e+03 1.778279410038922925e-01
2.779485973510905296e+03 3.162277660168379412e-01
2.957059197238958859e+03 5.623413251903490728e-01
3.141891650009372370e+03 1.000000000000000000e+00
3.336296042761652643e+03 1.778279410038922759e+00
3.542429444540100121e+03 3.162277660168379523e+00
3.763584374988049603e+03 5.623413251903491172e+00
4.004406095617534902e+03 1.000000000000000000e+01
4.270511533488864188e+03 1.778279410038922848e+01
4.568720956547691458e+03 3.162277660168379256e+01
4.908095426199580288e+03 5.623413251903490817e+01
5.304754899950292383e+03 1.000000000000000000e+02
5.770599782704493919e+03 1.778279410038922776e+02
6.327886463164471934e+03 3.162277660168379612e+02
