# Temperature (K), Pressure (bars)
2.050971820629412832e+03 1.778279410038922901e-06
2.053333248650912083e+03 3.162277660168379191e-06
2.055694764758816291e+03 5.623413251903491208e-06
2.059974648811519273e+03 1.000000000000000082e-05
2.070112994924074883e+03 1.778279410038922901e-05
2.089006719809743117e+03 3.162277660168379530e-05
2.117699731785925906e+03 5.623413251903490700e-05
2.156460097161809244e+03 1.000000000000000048e-04
2.202924638648748441e+03 1.778279410038922698e-04
2.253866726675872087e+03 3.162277660168379394e-04
2.307313169291372560e+03 5.623413251903490971e-04
2.360589052567151157e+03 1.000000000000000021e-03
2.410870435595212712e+03 1.778279410038922752e-03
2.456941237531046681e+03 3.162277660168379394e-03
2.497802924429141058e+03 5.623413251903490971e-03
2.536932853385449562e+03 1.000000000000000021e-02
2.577854954721571630e+03 1.778279410038922925e-02
2.634994669524642177e+03 3.162277660168379134e-02
2.732265595098082940e+03 5.623413251903491145e-02
2.862172087304792512e+03 1.000000000000000056e-01
3.006049846164080918e+03 1.778279410038922925e-01
3.163517344258769299e+03 3.162277660168379412e-01
3.337988350040298428e+03 5.623413251903490728e-01
3.531212501395885283e+03 1.000000000000000000e+00
3.743929236468673480e+03 1.778279410038922759e+00
3.977966785368177625e+03 3.162277660168379523e+00
4.237933378998180160e+03 5.623413251903491172e+00
4.531513186090378440e+03 1.000000000000000000e+01
4.869809227644329439e+03 1.778279410038922848e+01
5.268925348995479908e+03 3.162277660168379256e+01
5.753475562248257120e+03 5.623413251903490817e+01
6.361339615356924696e+03 1.000000000000000000e+02
7.155761671367313284e+03 1.778279410038922776e+02
8.237600800319743939e+03 3.162277660168379612e+02
