# Temperature (K), Pressure (bars)
2.226942186401376603e+03 9.999999999999999547e-07
2.235166822637099813e+03 1.778279410038922901e-06
2.243391458872823478e+03 3.162277660168379191e-06
2.262672338673191462e+03 5.623413251903491208e-06
2.286689197127996522e+03 1.000000000000000082e-05
2.312418587684807335e+03 1.778279410038922901e-05
2.343790624891028529e+03 3.162277660168379530e-05
2.379248605013339784e+03 5.623413251903490700e-05
2.416448909831830406e+03 1.000000000000000048e-04
2.455955816131023312e+03 1.778279410038922698e-04
2.497396144043770164e+03 3.162277660168379394e-04
2.539847542520570187e+03 5.623413251903490971e-04
2.585505100194007355e+03 1.000000000000000021e-03
2.638501040256643137e+03 1.778279410038922752e-03
2.699813365301031354e+03 3.162277660168379394e-03
2.758203501257069092e+03 5.623413251903490971e-03
2.800686721403952561e+03 1.000000000000000021e-02
2.816955309130511068e+03 1.778279410038922925e-02
2.854443506454211729e+03 3.162277660168379134e-02
2.974608117708128248e+03 5.623413251903491145e-02
3.132704221497321214e+03 1.000000000000000056e-01
3.293515415063614000e+03 1.778279410038922925e-01
3.476359712193559517e+03 3.162277660168379412e-01
3.686701054875484715e+03 5.623413251903490728e-01
3.927954200237987607e+03 1.000000000000000000e+00
4.205445773546314740e+03 1.778279410038922759e+00
4.522073650980390994e+03 3.162277660168379523e+00
4.897754588185914145e+03 5.623413251903491172e+00
5.383004372591273750e+03 1.000000000000000000e+01
6.058266958220272500e+03 1.778279410038922848e+01
7.071119942268644991e+03 3.162277660168379256e+01
8.554900162692010781e+03 5.623413251903490817e+01
1.000000000000000000e+04 1.000000000000000000e+02
1.000000000000000000e+04 1.778279410038922776e+02
1.000000000000000000e+04 3.162277660168379612e+02
