# Temperature (K), Pressure (bars)
8.965838334307624109e+02 3.162277660168379530e-05
9.497005840233192657e+02 5.623413251903490700e-05
1.002817334525455522e+03 1.000000000000000048e-04
1.051259119769984864e+03 1.778279410038922698e-04
1.092713247464938149e+03 3.162277660168379394e-04
1.127007900105625367e+03 5.623413251903490971e-04
1.158097781482100572e+03 1.000000000000000021e-03
1.188825736924745797e+03 1.778279410038922752e-03
1.219444645184315277e+03 3.162277660168379394e-03
1.252260337524912302e+03 5.623413251903490971e-03
1.286417318632800061e+03 1.000000000000000021e-02
1.322327061201734523e+03 1.778279410038922925e-02
1.359921759975730765e+03 3.162277660168379134e-02
1.402867374574901532e+03 5.623413251903491145e-02
1.483568890091196863e+03 1.000000000000000056e-01
1.622148965156750592e+03 1.778279410038922925e-01
1.823459902511856626e+03 3.162277660168379412e-01
2.084342753663238454e+03 5.623413251903490728e-01
2.356820065848621198e+03 1.000000000000000000e+00
2.610972901820557126e+03 1.778279410038922759e+00
2.853297956305350908e+03 3.162277660168379523e+00
3.089557533304438039e+03 5.623413251903491172e+00
3.327506277395756115e+03 1.000000000000000000e+01
3.574595701111638846e+03 1.778279410038922848e+01
3.839600840661393704e+03 3.162277660168379256e+01
4.127402480061978167e+03 5.623413251903490817e+01
4.444650201476894836e+03 1.000000000000000000e+02
4.794301154403498003e+03 1.778279410038922776e+02
5.195342037863760197e+03 3.162277660168379612e+02
