# Temperature (K), Pressure (bars)
1.192621602619597525e+03 9.999999999999999547e-07
1.229602556106395014e+03 1.778279410038922901e-06
1.266583509594190673e+03 3.162277660168379191e-06
1.307679418641506800e+03 5.623413251903491208e-06
1.351307336941337780e+03 1.000000000000000082e-05
1.398013558498174234e+03 1.778279410038922901e-05
1.451934864742041782e+03 3.162277660168379530e-05
1.513870464151456645e+03 5.623413251903490700e-05
1.584602637509107126e+03 1.000000000000000048e-04
1.667427687398105263e+03 1.778279410038922698e-04
1.754761733846337165e+03 3.162277660168379394e-04
1.841286761062653113e+03 5.623413251903490971e-04
1.932641127309360172e+03 1.000000000000000021e-03
2.040332848561284663e+03 1.778279410038922752e-03
2.171981350369700522e+03 3.162277660168379394e-03
2.315486851203219885e+03 5.623413251903490971e-03
2.460517070105308903e+03 1.000000000000000021e-02
2.608626752536588356e+03 1.778279410038922925e-02
2.761777474825546960e+03 3.162277660168379134e-02
2.922130783394561604e+03 5.623413251903491145e-02
3.092020742811892887e+03 1.000000000000000056e-01
3.273519893269128715e+03 1.778279410038922925e-01
3.468240054208135916e+03 3.162277660168379412e-01
3.678723178631634710e+03 5.623413251903490728e-01
3.910344228137222672e+03 1.000000000000000000e+00
4.171795000192193584e+03 1.778279410038922759e+00
4.475812118882704453e+03 3.162277660168379523e+00
4.834151409216021420e+03 5.623413251903491172e+00
5.287105554038750597e+03 1.000000000000000000e+01
5.892977711280465883e+03 1.778279410038922848e+01
6.747372377450258682e+03 3.162277660168379256e+01
8.006783531818656229e+03 5.623413251903490817e+01
9.751665777239932140e+03 1.000000000000000000e+02
1.187227774670532017e+04 1.778279410038922776e+02
1.439768303570670651e+04 3.162277660168379612e+02
