# Temperature (K), Pressure (bars)
9.504309275113411104e+02 1.000000000000000048e-04
1.009554115076782637e+03 1.778279410038922698e-04
1.068677302864896092e+03 3.162277660168379394e-04
1.119777895266682663e+03 5.623413251903490971e-04
1.166585175691367795e+03 1.000000000000000021e-03
1.214489101598254365e+03 1.778279410038922752e-03
1.260212635414880879e+03 3.162277660168379394e-03
1.297350709398789832e+03 5.623413251903490971e-03
1.330359413819419387e+03 1.000000000000000021e-02
1.367635837584197816e+03 1.778279410038922925e-02
1.407297660625761182e+03 3.162277660168379134e-02
1.465771412522111859e+03 5.623413251903491145e-02
1.577728092697660941e+03 1.000000000000000056e-01
1.735887421336250327e+03 1.778279410038922925e-01
1.924616722205399356e+03 3.162277660168379412e-01
2.155807451067971670e+03 5.623413251903490728e-01
2.410191575803942214e+03 1.000000000000000000e+00
2.657326818057607852e+03 1.778279410038922759e+00
2.894761699579756623e+03 3.162277660168379523e+00
3.128795765355043841e+03 5.623413251903491172e+00
3.365978136459556936e+03 1.000000000000000000e+01
3.613089019031603129e+03 1.778279410038922848e+01
3.878493240247832091e+03 3.162277660168379256e+01
4.167555577752300451e+03 5.623413251903490817e+01
4.487044180079820762e+03 1.000000000000000000e+02
4.840114435707600023e+03 1.778279410038922776e+02
5.245673926334074167e+03 3.162277660168379612e+02
