# Temperature (K), Pressure (bars)
1.402947331544488861e+03 9.999999999999999547e-07
1.403444916533084324e+03 1.778279410038922901e-06
1.403942501522899875e+03 3.162277660168379191e-06
1.409691368733905165e+03 5.623413251903491208e-06
1.421175740115149438e+03 1.000000000000000082e-05
1.437588152936482402e+03 1.778279410038922901e-05
1.460477123564457997e+03 3.162277660168379530e-05
1.492667084803220177e+03 5.623413251903490700e-05
1.539382231725268184e+03 1.000000000000000048e-04
1.600557172178938799e+03 1.778279410038922698e-04
1.664191208969313266e+03 3.162277660168379394e-04
1.725596069826816574e+03 5.623413251903490971e-04
1.788824820139284384e+03 1.000000000000000021e-03
1.856096100226957105e+03 1.778279410038922752e-03
1.927202028895812873e+03 3.162277660168379394e-03
2.005432250199598911e+03 5.623413251903490971e-03
2.089354555153658566e+03 1.000000000000000021e-02
2.194128137847541439e+03 1.778279410038922925e-02
2.341176886183813622e+03 3.162277660168379134e-02
2.502288943422530792e+03 5.623413251903491145e-02
2.657245675228696200e+03 1.000000000000000056e-01
2.815925792792520042e+03 1.778279410038922925e-01
2.981450883930986038e+03 3.162277660168379412e-01
3.156296996289073832e+03 5.623413251903490728e-01
3.342415274255620716e+03 1.000000000000000000e+00
3.541400988934356064e+03 1.778279410038922759e+00
3.755682512174216754e+03 3.162277660168379523e+00
3.989370483049679933e+03 5.623413251903491172e+00
4.248117183783752807e+03 1.000000000000000000e+01
4.539040396167352810e+03 1.778279410038922848e+01
4.871601355488866830e+03 3.162277660168379256e+01
5.261817557599888460e+03 5.623413251903490817e+01
5.725016281828219689e+03 1.000000000000000000e+02
6.286784587986190672e+03 1.778279410038922776e+02
6.986906169537023743e+03 3.162277660168379612e+02
