# Temperature (K), Pressure (bars)
1.759680027555037896e+03 9.999999999999999547e-07
1.767067643984080405e+03 1.778279410038922901e-06
1.774455260413944643e+03 3.162277660168379191e-06
1.786583895926111836e+03 5.623413251903491208e-06
1.808372200699071982e+03 1.000000000000000082e-05
1.837033636308908171e+03 1.778279410038922901e-05
1.869099227000993551e+03 3.162277660168379530e-05
1.906142175039601852e+03 5.623413251903490700e-05
1.947544941823172394e+03 1.000000000000000048e-04
1.992109806058505910e+03 1.778279410038922698e-04
2.040225905326532484e+03 3.162277660168379394e-04
2.091862017186437242e+03 5.623413251903490971e-04
2.146592932018133979e+03 1.000000000000000021e-03
2.206454141892534608e+03 1.778279410038922752e-03
2.271231043810526899e+03 3.162277660168379394e-03
2.350197772450863340e+03 5.623413251903490971e-03
2.456970134369436892e+03 1.000000000000000021e-02
2.579133341023243702e+03 1.778279410038922925e-02
2.706286377714730406e+03 3.162277660168379134e-02
2.842699937863182186e+03 5.623413251903491145e-02
2.989842050783657214e+03 1.000000000000000056e-01
3.149633838430710966e+03 1.778279410038922925e-01
3.324429836473373143e+03 3.162277660168379412e-01
3.516513307765559148e+03 5.623413251903490728e-01
3.727868487649147937e+03 1.000000000000000000e+00
3.961549876538606895e+03 1.778279410038922759e+00
4.223274624464154840e+03 3.162277660168379523e+00
4.522586316477900255e+03 5.623413251903491172e+00
4.869481844915896545e+03 1.000000000000000000e+01
5.291513130097021531e+03 1.778279410038922848e+01
5.824338745292650856e+03 3.162277660168379256e+01
6.529388272868399326e+03 5.623413251903490817e+01
7.515208263863481079e+03 1.000000000000000000e+02
8.936897293296960925e+03 1.778279410038922776e+02
1.079210982352416977e+04 3.162277660168379612e+02
