# Temperature (K), Pressure (bars)
7.803622140220791152e+02 1.000000000000000048e-04
8.277506094357206621e+02 1.778279410038922698e-04
8.751390059724657249e+02 3.162277660168379394e-04
9.218896808780992842e+02 5.623413251903490971e-04
9.684318820204077838e+02 1.000000000000000021e-03
1.016468509866317049e+03 1.778279410038922752e-03
1.067788629687561979e+03 3.162277660168379394e-03
1.125605644557582764e+03 5.623413251903490971e-03
1.192236549588649723e+03 1.000000000000000021e-02
1.274658445803501536e+03 1.778279410038922925e-02
1.375870246538843503e+03 3.162277660168379134e-02
1.523247234074268590e+03 5.623413251903491145e-02
1.738208224168978404e+03 1.000000000000000056e-01
1.980949275792414255e+03 1.778279410038922925e-01
2.228774270648917991e+03 3.162277660168379412e-01
2.472452654647947384e+03 5.623413251903490728e-01
2.698651159058113535e+03 1.000000000000000000e+00
2.914394546540034753e+03 1.778279410038922759e+00
3.127521631243809225e+03 3.162277660168379523e+00
3.345111261081653083e+03 5.623413251903491172e+00
3.573216926415479520e+03 1.000000000000000000e+01
3.817456349797277198e+03 1.778279410038922848e+01
4.085873422257144284e+03 3.162277660168379256e+01
4.382731915601468245e+03 5.623413251903490817e+01
4.715090905734503394e+03 1.000000000000000000e+02
5.086247905143346543e+03 1.778279410038922776e+02
5.518089713665976888e+03 3.162277660168379612e+02
