# Temperature (K), Pressure (bars)
1.103824549672447347e+03 5.623413251903490971e-04
1.145664764311397676e+03 1.000000000000000021e-03
1.187504981711621895e+03 1.778279410038922752e-03
1.232692433348509894e+03 3.162277660168379394e-03
1.281158752243662775e+03 5.623413251903490971e-03
1.332040729116835337e+03 1.000000000000000021e-02
1.385728011272032745e+03 1.778279410038922925e-02
1.444543708044556070e+03 3.162277660168379134e-02
1.511526133743929904e+03 5.623413251903491145e-02
1.590927959635952902e+03 1.000000000000000056e-01
1.690464815408347249e+03 1.778279410038922925e-01
1.812014297367833251e+03 3.162277660168379412e-01
1.952081556631680542e+03 5.623413251903490728e-01
2.116538765423417772e+03 1.000000000000000000e+00
2.331753410257074847e+03 1.778279410038922759e+00
2.597794029976455477e+03 3.162277660168379523e+00
2.866572168799919382e+03 5.623413251903491172e+00
3.121527815451685001e+03 1.000000000000000000e+01
3.378564157828818225e+03 1.778279410038922848e+01
3.646562552363853683e+03 3.162277660168379256e+01
3.932066471804374032e+03 5.623413251903490817e+01
4.242111820764348522e+03 1.000000000000000000e+02
4.580282740363310950e+03 1.778279410038922776e+02
4.963216137939475630e+03 3.162277660168379612e+02
