# Temperature (K), Pressure (bars)
7.570733936693046644e+02 1.000000000000000048e-04
8.010467827228670785e+02 1.778279410038922698e-04
8.450201727483882905e+02 3.162277660168379394e-04
8.887688244854990671e+02 5.623413251903490971e-04
9.326568467668591893e+02 1.000000000000000021e-03
9.776559578152673566e+02 1.778279410038922752e-03
1.025362146573202381e+03 3.162277660168379394e-03
1.078678060819992197e+03 5.623413251903490971e-03
1.140615234954691005e+03 1.000000000000000021e-02
1.217642480756892610e+03 1.778279410038922925e-02
1.313517468893655405e+03 3.162277660168379134e-02
1.458096250463410342e+03 5.623413251903491145e-02
1.682182277933496607e+03 1.000000000000000056e-01
1.945513357839153286e+03 1.778279410038922925e-01
2.204890965491962561e+03 3.162277660168379412e-01
2.450910275698631722e+03 5.623413251903490728e-01
2.679607547655875806e+03 1.000000000000000000e+00
2.896792039980311074e+03 1.778279410038922759e+00
3.110670564925710096e+03 3.162277660168379523e+00
3.328688284203921285e+03 5.623413251903491172e+00
3.557052276751646787e+03 1.000000000000000000e+01
3.801457456220320182e+03 1.778279410038922848e+01
4.070166502834012590e+03 3.162277660168379256e+01
4.367272126084453703e+03 5.623413251903490817e+01
4.699849868857352703e+03 1.000000000000000000e+02
5.071532170425034565e+03 1.778279410038922776e+02
5.503660172700360818e+03 3.162277660168379612e+02
