# Temperature (K), Pressure (bars)
1.635398901946658725e+03 1.000000000000000082e-05
1.652281151263490983e+03 1.778279410038922901e-05
1.669163403533248356e+03 3.162277660168379530e-05
1.693034259775011833e+03 5.623413251903490700e-05
1.724973963760598508e+03 1.000000000000000048e-04
1.760818569744567412e+03 1.778279410038922698e-04
1.799847966180727781e+03 3.162277660168379394e-04
1.840013023421618755e+03 5.623413251903490971e-04
1.878402778643629517e+03 1.000000000000000021e-03
1.916535102140742310e+03 1.778279410038922752e-03
1.955451148123205257e+03 3.162277660168379394e-03
1.996244254559928322e+03 5.623413251903490971e-03
2.039891350759742863e+03 1.000000000000000021e-02
2.087295233908707360e+03 1.778279410038922925e-02
2.138857724754114770e+03 3.162277660168379134e-02
2.200362490421751318e+03 5.623413251903491145e-02
2.272423536792582127e+03 1.000000000000000056e-01
2.377883134351513945e+03 1.778279410038922925e-01
2.546572882279039277e+03 3.162277660168379412e-01
2.741555687800776013e+03 5.623413251903490728e-01
2.932510238461818062e+03 1.000000000000000000e+00
3.129415213562216195e+03 1.778279410038922759e+00
3.335733517665952604e+03 3.162277660168379523e+00
3.553784350631709458e+03 5.623413251903491172e+00
3.787057641754417546e+03 1.000000000000000000e+01
4.040591904666961454e+03 1.778279410038922848e+01
4.321875853961342727e+03 3.162277660168379256e+01
4.637534372777595308e+03 5.623413251903490817e+01
4.996281906830037769e+03 1.000000000000000000e+02
5.402166253244509790e+03 1.778279410038922776e+02
5.883285603925403848e+03 3.162277660168379612e+02
