# Temperature (K), Pressure (bars)
8.494573694025322084e+02 5.623413251903490700e-05
9.018067895175290687e+02 1.000000000000000048e-04
9.541562107716086985e+02 1.778279410038922698e-04
1.005482984516228612e+03 3.162277660168379394e-04
1.056628190705816451e+03 5.623413251903490971e-04
1.109870516466291065e+03 1.000000000000000021e-03
1.167258044419210137e+03 1.778279410038922752e-03
1.231587457015946029e+03 3.162277660168379394e-03
1.305356624158836439e+03 5.623413251903490971e-03
1.394568253717492553e+03 1.000000000000000021e-02
1.505605566851282447e+03 1.778279410038922925e-02
1.673051840447880068e+03 3.162277660168379134e-02
1.916189040770903148e+03 5.623413251903491145e-02
2.171886317493621391e+03 1.000000000000000056e-01
2.398573746932031554e+03 1.778279410038922925e-01
2.606649167783471512e+03 3.162277660168379412e-01
2.803357925146551679e+03 5.623413251903490728e-01
2.995855847955349418e+03 1.000000000000000000e+00
3.190187917110613853e+03 1.778279410038922759e+00
3.391754060463134465e+03 3.162277660168379523e+00
3.605521203230572155e+03 5.623413251903491172e+00
3.836258409309583840e+03 1.000000000000000000e+01
4.089166858640532155e+03 1.778279410038922848e+01
4.372623001430491058e+03 3.162277660168379256e+01
4.691841592343539560e+03 5.623413251903490817e+01
5.055697190741688246e+03 1.000000000000000000e+02
5.468322636426990357e+03 1.778279410038922776e+02
5.959078661471005034e+03 3.162277660168379612e+02
