# Temperature (K), Pressure (bars)
1.602242447576936684e+03 1.778279410038922901e-06
1.621161918871832768e+03 3.162277660168379191e-06
1.640470773348979264e+03 5.623413251903491208e-06
1.664331322708708058e+03 1.000000000000000082e-05
1.695991489084528666e+03 1.778279410038922901e-05
1.735252691608291116e+03 3.162277660168379530e-05
1.781005069696888768e+03 5.623413251903490700e-05
1.833805640948110295e+03 1.000000000000000048e-04
1.892294998535356399e+03 1.778279410038922698e-04
1.954551382298885983e+03 3.162277660168379394e-04
2.021741701543451654e+03 5.623413251903490971e-04
2.093309196911756317e+03 1.000000000000000021e-03
2.175235989329241875e+03 1.778279410038922752e-03
2.278001511096680133e+03 3.162277660168379394e-03
2.394737150892629870e+03 5.623413251903490971e-03
2.516870977179202328e+03 1.000000000000000021e-02
2.645657655179672474e+03 1.778279410038922925e-02
2.782323144599339685e+03 3.162277660168379134e-02
2.928473843671356008e+03 5.623413251903491145e-02
3.086255062849849310e+03 1.000000000000000056e-01
3.258365338011504718e+03 1.778279410038922925e-01
3.447511753114114981e+03 3.162277660168379412e-01
3.656009286031230658e+03 5.623413251903490728e-01
3.887060857448141178e+03 1.000000000000000000e+00
4.147226499366313874e+03 1.778279410038922759e+00
4.447967588188077571e+03 3.162277660168379523e+00
4.797603926348192545e+03 5.623413251903491172e+00
5.235849263783436982e+03 1.000000000000000000e+01
5.817523973815004865e+03 1.778279410038922848e+01
6.646188182749511725e+03 3.162277660168379256e+01
7.885185679160191285e+03 5.623413251903490817e+01
9.598922562282034050e+03 1.000000000000000000e+02
1.169173741972933749e+04 1.778279410038922776e+02
1.418345813549889863e+04 3.162277660168379612e+02
