# Temperature (K), Pressure (bars)
9.881537054799347288e+02 3.162277660168379530e-05
1.036442552674669059e+03 5.623413251903490700e-05
1.084731402235765927e+03 1.000000000000000048e-04
1.134104334259010102e+03 1.778279410038922698e-04
1.185012486504281469e+03 3.162277660168379394e-04
1.238330337858075836e+03 5.623413251903490971e-04
1.294241929888961067e+03 1.000000000000000021e-03
1.356173833718764854e+03 1.778279410038922752e-03
1.426775782926916236e+03 3.162277660168379394e-03
1.507272882861116614e+03 5.623413251903490971e-03
1.601245089586321228e+03 1.000000000000000021e-02
1.709978247397289351e+03 1.778279410038922925e-02
1.827209169946935162e+03 3.162277660168379134e-02
1.975200082922012371e+03 5.623413251903491145e-02
2.179387704430922895e+03 1.000000000000000056e-01
2.397859378544880656e+03 1.778279410038922925e-01
2.598841297872955693e+03 3.162277660168379412e-01
2.793056582378361327e+03 5.623413251903490728e-01
2.986613017967554697e+03 1.000000000000000000e+00
3.183626821220978854e+03 1.778279410038922759e+00
3.387823912251649745e+03 3.162277660168379523e+00
3.603658122629194622e+03 5.623413251903491172e+00
3.836046973154281659e+03 1.000000000000000000e+01
4.090341957668716077e+03 1.778279410038922848e+01
4.374762919512517328e+03 3.162277660168379256e+01
4.695180030582271684e+03 5.623413251903490817e+01
5.060598702933094501e+03 1.000000000000000000e+02
5.475497754732684371e+03 1.778279410038922776e+02
5.969235478817593503e+03 3.162277660168379612e+02
