# Temperature (K), Pressure (bars)
9.283151220249721973e+02 3.162277660168379394e-03
9.729832885042766293e+02 5.623413251903490971e-03
1.017651455319790898e+03 1.000000000000000021e-02
1.060776965560572535e+03 1.778279410038922925e-02
1.103517337905575459e+03 3.162277660168379134e-02
1.147491677866967166e+03 5.623413251903491145e-02
1.194663932824031463e+03 1.000000000000000056e-01
1.248362899440501906e+03 1.778279410038922925e-01
1.312253458087397121e+03 3.162277660168379412e-01
1.393740624074529478e+03 5.623413251903490728e-01
1.515844448145897331e+03 1.000000000000000000e+00
1.682975738450537165e+03 1.778279410038922759e+00
1.898311322157151153e+03 3.162277660168379523e+00
2.176595933024448641e+03 5.623413251903491172e+00
2.480927008331162597e+03 1.000000000000000000e+01
2.779783743044284165e+03 1.778279410038922848e+01
3.078315961207508735e+03 3.162277660168379256e+01
3.379070116935423812e+03 5.623413251903490817e+01
3.689351824638222752e+03 1.000000000000000000e+02
4.012305159091682981e+03 1.778279410038922776e+02
4.363985408992061821e+03 3.162277660168379612e+02
