# Temperature (K), Pressure (bars)
2.086730269939093432e+03 9.999999999999999547e-07
2.231587211432130971e+03 1.778279410038922901e-06
2.376444152925198978e+03 3.162277660168379191e-06
2.453397968473579112e+03 5.623413251903491208e-06
2.474369982772691401e+03 1.000000000000000082e-05
2.480768946262732243e+03 1.778279410038922901e-05
2.495295019306241102e+03 3.162277660168379530e-05
2.512219657035306227e+03 5.623413251903490700e-05
2.533608587748164609e+03 1.000000000000000048e-04
2.566021537745407841e+03 1.778279410038922698e-04
2.606487737576356722e+03 3.162277660168379394e-04
2.652984691020074024e+03 5.623413251903490971e-04
2.703332175460199323e+03 1.000000000000000021e-03
2.757966649985253298e+03 1.778279410038922752e-03
2.819108927596184913e+03 3.162277660168379394e-03
2.880334605019161245e+03 5.623413251903490971e-03
2.930246303728111343e+03 1.000000000000000021e-02
2.950798660134814781e+03 1.778279410038922925e-02
2.982075735631644420e+03 3.162277660168379134e-02
3.095398730893305128e+03 5.623413251903491145e-02
3.259270786831461919e+03 1.000000000000000056e-01
3.440419733568010997e+03 1.778279410038922925e-01
3.643405653522805551e+03 3.162277660168379412e-01
3.879296848237023823e+03 5.623413251903490728e-01
4.152504929667446049e+03 1.000000000000000000e+00
4.451375782372968388e+03 1.778279410038922759e+00
4.827560037394475330e+03 3.162277660168379523e+00
5.337462856666327752e+03 5.623413251903491172e+00
6.102616036873858320e+03 1.000000000000000000e+01
7.301219240700645969e+03 1.778279410038922848e+01
8.953424793557260273e+03 3.162277660168379256e+01
1.092680852560259336e+04 5.623413251903490817e+01
1.329725713511036156e+04 1.000000000000000000e+02
1.619014818516515516e+04 1.778279410038922776e+02
1.964163357746102338e+04 3.162277660168379612e+02
