# Temperature (K), Pressure (bars)
1.004403705695920394e+03 5.623413251903490971e-04
1.044380088158304943e+03 1.000000000000000021e-03
1.084356470052038276e+03 1.778279410038922752e-03
1.116864604849051375e+03 3.162277660168379394e-03
1.141383257395305009e+03 5.623413251903490971e-03
1.161555981967111620e+03 1.000000000000000021e-02
1.181793369147117573e+03 1.778279410038922925e-02
1.206286777905285817e+03 3.162277660168379134e-02
1.238368646848556637e+03 5.623413251903491145e-02
1.280162230469761198e+03 1.000000000000000056e-01
1.334287868954075293e+03 1.778279410038922925e-01
1.405335443670960331e+03 3.162277660168379412e-01
1.498133001643379657e+03 5.623413251903490728e-01
1.618777633708180247e+03 1.000000000000000000e+00
1.777780017167479400e+03 1.778279410038922759e+00
2.002602354836264567e+03 3.162277660168379523e+00
2.292686431674620053e+03 5.623413251903491172e+00
2.596410984527307846e+03 1.000000000000000000e+01
2.889666261958463565e+03 1.778279410038922848e+01
3.182682691346546108e+03 3.162277660168379256e+01
3.479851889650647081e+03 5.623413251903490817e+01
3.788991424306286717e+03 1.000000000000000000e+02
4.114884694000226773e+03 1.778279410038922776e+02
4.472793413220407274e+03 3.162277660168379612e+02
