# Temperature (K), Pressure (bars)
8.729188395678996812e+02 1.000000000000000048e-04
9.255928489330696038e+02 1.778279410038922698e-04
9.782668596816324680e+02 3.162277660168379394e-04
1.030186576917745924e+03 5.623413251903490971e-04
1.081567104194765307e+03 1.000000000000000021e-03
1.133813715934495349e+03 1.778279410038922752e-03
1.188234241573545887e+03 3.162277660168379394e-03
1.246363459013113470e+03 5.623413251903490971e-03
1.311374264707878410e+03 1.000000000000000021e-02
1.388764364552617280e+03 1.778279410038922925e-02
1.492322378373195761e+03 3.162277660168379134e-02
1.628472597122547995e+03 5.623413251903491145e-02
1.806279881140441603e+03 1.000000000000000056e-01
2.035660931433076257e+03 1.778279410038922925e-01
2.282520660336164383e+03 3.162277660168379412e-01
2.514801156151327177e+03 5.623413251903490728e-01
2.734183196516838052e+03 1.000000000000000000e+00
2.946817366912275247e+03 1.778279410038922759e+00
3.159053462979309188e+03 3.162277660168379523e+00
3.376832483698387477e+03 5.623413251903491172e+00
3.605861369275384277e+03 1.000000000000000000e+01
3.851742939923160520e+03 1.778279410038922848e+01
4.122408196193948243e+03 3.162277660168379256e+01
4.422629967265253072e+03 5.623413251903490817e+01
4.759808383917477840e+03 1.000000000000000000e+02
5.137143977715283654e+03 1.778279410038922776e+02
5.578069030007015499e+03 3.162277660168379612e+02
