# Temperature (K), Pressure (bars)
8.398842573187882863e+02 3.162277660168379394e-04
8.879255428537808257e+02 5.623413251903490971e-04
9.359668294867379927e+02 1.000000000000000021e-03
9.829859474470879377e+02 1.778279410038922752e-03
1.030350318989701009e+03 3.162277660168379394e-03
1.078532987679957387e+03 5.623413251903490971e-03
1.128169639903247116e+03 1.000000000000000021e-02
1.181369164424994779e+03 1.778279410038922925e-02
1.242301533831504457e+03 3.162277660168379134e-02
1.316177402999130209e+03 5.623413251903491145e-02
1.417626305765917323e+03 1.000000000000000056e-01
1.571385921592652721e+03 1.778279410038922925e-01
1.790261367958475603e+03 3.162277660168379412e-01
2.054426567940508448e+03 5.623413251903490728e-01
2.323903944007965947e+03 1.000000000000000000e+00
2.579944829859839047e+03 1.778279410038922759e+00
2.824958358257202235e+03 3.162277660168379523e+00
3.063792798074351595e+03 5.623413251903491172e+00
3.303583219394072785e+03 1.000000000000000000e+01
3.551636504672163937e+03 1.778279410038922848e+01
3.816748390506672877e+03 3.162277660168379256e+01
4.104087211473525713e+03 5.623413251903490817e+01
4.420324118486510997e+03 1.000000000000000000e+02
4.768689500261330068e+03 1.778279410038922776e+02
5.167544358890781041e+03 3.162277660168379612e+02
