# Temperature (K), Pressure (bars)
9.058877095664522585e+02 1.000000000000000048e-04
9.549273661867518967e+02 1.778279410038922698e-04
1.003967022163526167e+03 3.162277660168379394e-04
1.051462248108615995e+03 5.623413251903490971e-04
1.100389650251667717e+03 1.000000000000000021e-03
1.148922438748643572e+03 1.778279410038922752e-03
1.193692167021641126e+03 3.162277660168379394e-03
1.235223650212639541e+03 5.623413251903490971e-03
1.274766730646792212e+03 1.000000000000000021e-02
1.313590664797151703e+03 1.778279410038922925e-02
1.355667070838419932e+03 3.162277660168379134e-02
1.406784137079126594e+03 5.623413251903491145e-02
1.466411770972840031e+03 1.000000000000000056e-01
1.529205954769898653e+03 1.778279410038922925e-01
1.642067444106291305e+03 3.162277660168379412e-01
1.857605126172062910e+03 5.623413251903490728e-01
2.130231595204656969e+03 1.000000000000000000e+00
2.403249376986062089e+03 1.778279410038922759e+00
2.666990853622339273e+03 3.162277660168379523e+00
2.920980282242838712e+03 5.623413251903491172e+00
3.170740357136324747e+03 1.000000000000000000e+01
3.424169182112797444e+03 1.778279410038922848e+01
3.690773122616193177e+03 3.162277660168379256e+01
3.976249101608873389e+03 5.623413251903490817e+01
4.287427368883811141e+03 1.000000000000000000e+02
4.627441483058134509e+03 1.778279410038922776e+02
5.013565016868814382e+03 3.162277660168379612e+02
