# Temperature (K), Pressure (bars)
1.041979658499746165e+03 3.162277660168379394e-03
1.076107031395734111e+03 5.623413251903490971e-03
1.110234404284908578e+03 1.000000000000000021e-02
1.136120489106322566e+03 1.778279410038922925e-02
1.156016921700895637e+03 3.162277660168379134e-02
1.177631987513995682e+03 5.623413251903491145e-02
1.206300703623379832e+03 1.000000000000000056e-01
1.244256693776818793e+03 1.778279410038922925e-01
1.291851901111704592e+03 3.162277660168379412e-01
1.353540661111139343e+03 5.623413251903490728e-01
1.435592712733999633e+03 1.000000000000000000e+00
1.543865578999726949e+03 1.778279410038922759e+00
1.680375022372545345e+03 3.162277660168379523e+00
1.866886440851644238e+03 5.623413251903491172e+00
2.129211789041240536e+03 1.000000000000000000e+01
2.433750173755421656e+03 1.778279410038922848e+01
2.745700486570260182e+03 3.162277660168379256e+01
3.062099700194502475e+03 5.623413251903490817e+01
3.383280479034540349e+03 1.000000000000000000e+02
3.710699565883787727e+03 1.778279410038922776e+02
4.059024502362538442e+03 3.162277660168379612e+02
