# Temperature (K), Pressure (bars)
1.931835732415691382e+03 9.999999999999999547e-07
1.937671866525661244e+03 1.778279410038922901e-06
1.943508000641018498e+03 3.162277660168379191e-06
1.957071458512651589e+03 5.623413251903491208e-06
1.976525672916119674e+03 1.000000000000000082e-05
2.002775154630532143e+03 1.778279410038922901e-05
2.036082273544015607e+03 3.162277660168379530e-05
2.072074814866121415e+03 5.623413251903490700e-05
2.107872758716242970e+03 1.000000000000000048e-04
2.142698564089047068e+03 1.778279410038922698e-04
2.177085348148746561e+03 3.162277660168379394e-04
2.212409857663876210e+03 5.623413251903490971e-04
2.250883096274344098e+03 1.000000000000000021e-03
2.294182076281178070e+03 1.778279410038922752e-03
2.344832463508110322e+03 3.162277660168379394e-03
2.403321340337568472e+03 5.623413251903490971e-03
2.476717272759707612e+03 1.000000000000000021e-02
2.577255853429615854e+03 1.778279410038922925e-02
2.697870175320803355e+03 3.162277660168379134e-02
2.828572894945875305e+03 5.623413251903491145e-02
2.970557925542258999e+03 1.000000000000000056e-01
3.125804537476620226e+03 1.778279410038922925e-01
3.296783244375033973e+03 3.162277660168379412e-01
3.485592523496075955e+03 5.623413251903490728e-01
3.693682988627901977e+03 1.000000000000000000e+00
3.923265918182543828e+03 1.778279410038922759e+00
4.179151421931418554e+03 3.162277660168379523e+00
4.469929152043243448e+03 5.623413251903491172e+00
4.804119094705679345e+03 1.000000000000000000e+01
5.205986848906282830e+03 1.778279410038922848e+01
5.705263786559426080e+03 3.162277660168379256e+01
6.353062423979641608e+03 5.623413251903490817e+01
7.242133049053659306e+03 1.000000000000000000e+02
8.517569619663121557e+03 1.778279410038922776e+02
1.025301747121071821e+04 3.162277660168379612e+02
