# Temperature (K), Pressure (bars)
8.780011608314104024e+02 5.623413251903490971e-04
9.215953468671093560e+02 1.000000000000000021e-03
9.651895345989745465e+02 1.778279410038922752e-03
1.010027772429943184e+03 3.162277660168379394e-03
1.055760240999740972e+03 5.623413251903490971e-03
1.102310370808158723e+03 1.000000000000000021e-02
1.150097742531329004e+03 1.778279410038922925e-02
1.200103941357901249e+03 3.162277660168379134e-02
1.255126905171839098e+03 5.623413251903491145e-02
1.319281185558348170e+03 1.000000000000000056e-01
1.399343411481415387e+03 1.778279410038922925e-01
1.506694602162133151e+03 3.162277660168379412e-01
1.656054884415507331e+03 5.623413251903490728e-01
1.847571412002032957e+03 1.000000000000000000e+00
2.083658395502187432e+03 1.778279410038922759e+00
2.364573256330123513e+03 3.162277660168379523e+00
2.651754675446333749e+03 5.623413251903491172e+00
2.924468875542560909e+03 1.000000000000000000e+01
3.193912580586080367e+03 1.778279410038922848e+01
3.468820992292285155e+03 3.162277660168379256e+01
3.756084436056477898e+03 5.623413251903490817e+01
4.063266745149739563e+03 1.000000000000000000e+02
4.394524715298839510e+03 1.778279410038922776e+02
4.765213990534621189e+03 3.162277660168379612e+02
