# Temperature (K), Pressure (bars)
1.663215103441123574e+03 9.999999999999999547e-07
1.761885295970216021e+03 1.778279410038922901e-06
1.860555488499308922e+03 3.162277660168379191e-06
1.934164984743967580e+03 5.623413251903491208e-06
1.986657926788770737e+03 1.000000000000000082e-05
2.029859806879961752e+03 1.778279410038922901e-05
2.068099913462760469e+03 3.162277660168379530e-05
2.104227661357552734e+03 5.623413251903490700e-05
2.141237573502176019e+03 1.000000000000000048e-04
2.181338245699604613e+03 1.778279410038922698e-04
2.226524424679471849e+03 3.162277660168379394e-04
2.278968106953753249e+03 5.623413251903490971e-04
2.340575516031195548e+03 1.000000000000000021e-03
2.412214279597922086e+03 1.778279410038922752e-03
2.492908454742571848e+03 3.162277660168379394e-03
2.579307568444730350e+03 5.623413251903490971e-03
2.674523477131283016e+03 1.000000000000000021e-02
2.788467727118203584e+03 1.778279410038922925e-02
2.924393972455864059e+03 3.162277660168379134e-02
3.082619573731548826e+03 5.623413251903491145e-02
3.265263994975668083e+03 1.000000000000000056e-01
3.476258073362309915e+03 1.778279410038922925e-01
3.684812472540664203e+03 3.162277660168379412e-01
3.923553811129995665e+03 5.623413251903490728e-01
4.203861348874193936e+03 1.000000000000000000e+00
4.536339643151760356e+03 1.778279410038922759e+00
4.971020628944397686e+03 3.162277660168379523e+00
5.583596175487954497e+03 5.623413251903491172e+00
6.490969716049057752e+03 1.000000000000000000e+01
7.854695657360794939e+03 1.778279410038922848e+01
9.623066329959527138e+03 3.162277660168379256e+01
1.000000000000000000e+04 5.623413251903490817e+01
1.000000000000000000e+04 1.000000000000000000e+02
1.000000000000000000e+04 1.778279410038922776e+02
1.000000000000000000e+04 3.162277660168379612e+02
