# Temperature (K), Pressure (bars)
1.233365546506305691e+03 3.162277660168379191e-06
1.307110968899095724e+03 5.623413251903491208e-06
1.380987569528902668e+03 1.000000000000000082e-05
1.443922593369876722e+03 1.778279410038922901e-05
1.495998906294930521e+03 3.162277660168379530e-05
1.553620054174273037e+03 5.623413251903490700e-05
1.637097028699161910e+03 1.000000000000000048e-04
1.723373779804368496e+03 1.778279410038922698e-04
1.789286174949999349e+03 3.162277660168379394e-04
1.848557180647169616e+03 5.623413251903490971e-04
1.909781557308891706e+03 1.000000000000000021e-03
1.971628351998744392e+03 1.778279410038922752e-03
2.037265064180307490e+03 3.162277660168379394e-03
2.108438358260367750e+03 5.623413251903490971e-03
2.192745892173617449e+03 1.000000000000000021e-02
2.306083668394135202e+03 1.778279410038922925e-02
2.443931154254082230e+03 3.162277660168379134e-02
2.589875154056191604e+03 5.623413251903491145e-02
2.740486114018412081e+03 1.000000000000000056e-01
2.898240195950039833e+03 1.778279410038922925e-01
3.065211366841315339e+03 3.162277660168379412e-01
3.243213691205964551e+03 5.623413251903490728e-01
3.433567932806067347e+03 1.000000000000000000e+00
3.637820503073127838e+03 1.778279410038922759e+00
3.859063204977026544e+03 3.162277660168379523e+00
4.102236083337458695e+03 5.623413251903491172e+00
4.373844532310225986e+03 1.000000000000000000e+01
4.682429334590239705e+03 1.778279410038922848e+01
5.041596322298632913e+03 3.162277660168379256e+01
5.465859727526236384e+03 5.623413251903490817e+01
5.977574017086601089e+03 1.000000000000000000e+02
6.609545558517512291e+03 1.778279410038922776e+02
7.413555577628668289e+03 3.162277660168379612e+02
