# Temperature (K), Pressure (bars)
2.302700497491108308e+03 9.999999999999999547e-07
2.307071281210596226e+03 1.778279410038922901e-06
2.311442064930084143e+03 3.162277660168379191e-06
2.336953850507484276e+03 5.623413251903491208e-06
2.368998955619952085e+03 1.000000000000000082e-05
2.401339658218848854e+03 1.778279410038922901e-05
2.439330344236994733e+03 3.162277660168379530e-05
2.482836442390167576e+03 5.623413251903490700e-05
2.532223689583596752e+03 1.000000000000000048e-04
2.586977408836006816e+03 1.778279410038922698e-04
2.645480498440025713e+03 3.162277660168379394e-04
2.705735728657386971e+03 5.623413251903490971e-04
2.765414092726893159e+03 1.000000000000000021e-03
2.821687296885306296e+03 1.778279410038922752e-03
2.870603976618775505e+03 3.162277660168379394e-03
2.912087712439756160e+03 5.623413251903490971e-03
2.950003757314255836e+03 1.000000000000000021e-02
2.995975937240214535e+03 1.778279410038922925e-02
3.052605090639096488e+03 3.162277660168379134e-02
3.136297235596311111e+03 5.623413251903491145e-02
3.277655725389620784e+03 1.000000000000000056e-01
3.457982246990042768e+03 1.778279410038922925e-01
3.652099517821962309e+03 3.162277660168379412e-01
3.878259876836664262e+03 5.623413251903490728e-01
4.147179254052527540e+03 1.000000000000000000e+00
4.459179438682475848e+03 1.778279410038922759e+00
4.856061595491616572e+03 3.162277660168379523e+00
5.399762366300423309e+03 5.623413251903491172e+00
6.214470555091575079e+03 1.000000000000000000e+01
7.477191399927472958e+03 1.778279410038922848e+01
9.175422895266307023e+03 3.162277660168379256e+01
1.000000000000000000e+04 5.623413251903490817e+01
1.000000000000000000e+04 1.000000000000000000e+02
1.000000000000000000e+04 1.778279410038922776e+02
1.000000000000000000e+04 3.162277660168379612e+02
