# Temperature (K), Pressure (bars)
9.221016624804691446e+02 9.999999999999999547e-07
9.291355885026343913e+02 1.778279410038922901e-06
9.361695145260830486e+02 3.162277660168379191e-06
9.480554386204908042e+02 5.623413251903491208e-06
9.654579587866586508e+02 1.000000000000000082e-05
9.885085722498013183e+02 1.778279410038922901e-05
1.017609882754486648e+03 3.162277660168379530e-05
1.051902789944953383e+03 5.623413251903490700e-05
1.091079107254014161e+03 1.000000000000000048e-04
1.134619940037735887e+03 1.778279410038922698e-04
1.181910965958375300e+03 3.162277660168379394e-04
1.232986440708751388e+03 5.623413251903490971e-04
1.287498070162108434e+03 1.000000000000000021e-03
1.345861506090237526e+03 1.778279410038922752e-03
1.410773256861745722e+03 3.162277660168379394e-03
1.483193879951230883e+03 5.623413251903490971e-03
1.570567947588329389e+03 1.000000000000000021e-02
1.674874645431170393e+03 1.778279410038922925e-02
1.824549336688112817e+03 3.162277660168379134e-02
2.046920888715129877e+03 5.623413251903491145e-02
2.282065131765944898e+03 1.000000000000000056e-01
2.488900784946009480e+03 1.778279410038922925e-01
2.683104627793641157e+03 3.162277660168379412e-01
2.872415422164851407e+03 5.623413251903490728e-01
3.062333551779648133e+03 1.000000000000000000e+00
3.256984889389462751e+03 1.778279410038922759e+00
3.460315793110105005e+03 3.162277660168379523e+00
3.676749341003863265e+03 5.623413251903491172e+00
3.911134537843731778e+03 1.000000000000000000e+01
4.168739503957863235e+03 1.778279410038922848e+01
4.455688330026292533e+03 3.162277660168379256e+01
4.780007767082613100e+03 5.623413251903490817e+01
5.156492746028826332e+03 1.000000000000000000e+02
5.594335818743732489e+03 1.778279410038922776e+02
6.111887810711518796e+03 3.162277660168379612e+02
