# Temperature (K), Pressure (bars)
7.468476173269898482e+02 3.162277660168379530e-05
7.934272166862859876e+02 5.623413251903490700e-05
8.400068169882010807e+02 1.000000000000000048e-04
8.856198898608947729e+02 1.778279410038922698e-04
9.313898650342952124e+02 3.162277660168379394e-04
9.793051001903909309e+02 5.623413251903490971e-04
1.031497976194749072e+03 1.000000000000000021e-03
1.090790577834304031e+03 1.778279410038922752e-03
1.159104895378832680e+03 3.162277660168379394e-03
1.241528054679677098e+03 5.623413251903490971e-03
1.342352745802168783e+03 1.000000000000000021e-02
1.488019080027671407e+03 1.778279410038922925e-02
1.705750387137535654e+03 3.162277660168379134e-02
1.959929892268791718e+03 5.623413251903491145e-02
2.206504076489599356e+03 1.000000000000000056e-01
2.432488432931331317e+03 1.778279410038922925e-01
2.637306013936085947e+03 3.162277660168379412e-01
2.829742800257292856e+03 5.623413251903490728e-01
3.018249323151591398e+03 1.000000000000000000e+00
3.209647068855460020e+03 1.778279410038922759e+00
3.409421589243810104e+03 3.162277660168379523e+00
3.622288531483075531e+03 5.623413251903491172e+00
3.852806489214047815e+03 1.000000000000000000e+01
4.106098927144689696e+03 1.778279410038922848e+01
4.390871173169519352e+03 3.162277660168379256e+01
4.711974661615312471e+03 5.623413251903490817e+01
5.078395592543080056e+03 1.000000000000000000e+02
5.494970074323065091e+03 1.778279410038922776e+02
5.990566718161061544e+03 3.162277660168379612e+02
