# Temperature (K), Pressure (bars)
1.284824931404237304e+03 1.000000000000000048e-04
1.315008778799502807e+03 1.778279410038922698e-04
1.345192628504065851e+03 3.162277660168379394e-04
1.379180207997305843e+03 5.623413251903490971e-04
1.419993107154597737e+03 1.000000000000000021e-03
1.466560916265387505e+03 1.778279410038922752e-03
1.522121601744808686e+03 3.162277660168379394e-03
1.593531484070348370e+03 5.623413251903490971e-03
1.672443243756272750e+03 1.000000000000000021e-02
1.745087570381567957e+03 1.778279410038922925e-02
1.813588549707285665e+03 3.162277660168379134e-02
1.886037049828906675e+03 5.623413251903491145e-02
1.968611636145374405e+03 1.000000000000000056e-01
2.069839190984377638e+03 1.778279410038922925e-01
2.195266053860912052e+03 3.162277660168379412e-01
2.367916257968028276e+03 5.623413251903490728e-01
2.594167585399433392e+03 1.000000000000000000e+00
2.826539355605942546e+03 1.778279410038922759e+00
3.046340305082716895e+03 3.162277660168379523e+00
3.269758286403327475e+03 5.623413251903491172e+00
3.502516023817941459e+03 1.000000000000000000e+01
3.749356770762081851e+03 1.778279410038922848e+01
4.017206287801970575e+03 3.162277660168379256e+01
4.311966279114606550e+03 5.623413251903490817e+01
4.640728613882813079e+03 1.000000000000000000e+02
5.007116555727990090e+03 1.778279410038922776e+02
5.431660306619026414e+03 3.162277660168379612e+02
