# Temperature (K), Pressure (bars)
1.440416448257496313e+03 1.000000000000000048e-04
1.473570691081280302e+03 1.778279410038922698e-04
1.506724935638143279e+03 3.162277660168379394e-04
1.553676064181337097e+03 5.623413251903490971e-04
1.600412962342484889e+03 1.000000000000000021e-03
1.640770881093476419e+03 1.778279410038922752e-03
1.683298242245421761e+03 3.162277660168379394e-03
1.731371724655089110e+03 5.623413251903490971e-03
1.783437377193376051e+03 1.000000000000000021e-02
1.839216172662736426e+03 1.778279410038922925e-02
1.898411022761738195e+03 3.162277660168379134e-02
1.962385659689709428e+03 5.623413251903491145e-02
2.034501739826937182e+03 1.000000000000000056e-01
2.121967391376836986e+03 1.778279410038922925e-01
2.226423707561228639e+03 3.162277660168379412e-01
2.368368365796308808e+03 5.623413251903490728e-01
2.570780663088783513e+03 1.000000000000000000e+00
2.796642068196096716e+03 1.778279410038922759e+00
3.016998597674284156e+03 3.162277660168379523e+00
3.241136546936863851e+03 5.623413251903491172e+00
3.474482949545634710e+03 1.000000000000000000e+01
3.721611489722399256e+03 1.778279410038922848e+01
3.988878568447770249e+03 3.162277660168379256e+01
4.282287972888419972e+03 5.623413251903490817e+01
4.608891870930831828e+03 1.000000000000000000e+02
4.971859870853918437e+03 1.778279410038922776e+02
5.392126486968686550e+03 3.162277660168379612e+02
