# Temperature (K), Pressure (bars)
1.294029907500773334e+03 1.778279410038922901e-06
1.315388437369526400e+03 3.162277660168379191e-06
1.341030783855044092e+03 5.623413251903491208e-06
1.372716469060543432e+03 1.000000000000000082e-05
1.411491481601965916e+03 1.778279410038922901e-05
1.461000090230575097e+03 3.162277660168379530e-05
1.525237502238934894e+03 5.623413251903490700e-05
1.594284457214944268e+03 1.000000000000000048e-04
1.659829459804210046e+03 1.778279410038922698e-04
1.726845690509264841e+03 3.162277660168379394e-04
1.798183169582258415e+03 5.623413251903490971e-04
1.875168785369432044e+03 1.000000000000000021e-03
1.958128642487118668e+03 1.778279410038922752e-03
2.058978635354003927e+03 3.162277660168379394e-03
2.191487031823250618e+03 5.623413251903490971e-03
2.337958298046590699e+03 1.000000000000000021e-02
2.483493836913613904e+03 1.778279410038922925e-02
2.631985388959323245e+03 3.162277660168379134e-02
2.785522649491323136e+03 5.623413251903491145e-02
2.946270636587989884e+03 1.000000000000000056e-01
3.116378172988682309e+03 1.778279410038922925e-01
3.297320945219498753e+03 3.162277660168379412e-01
3.490105369139525010e+03 5.623413251903490728e-01
3.697120442962012021e+03 1.000000000000000000e+00
3.923163797501343652e+03 1.778279410038922759e+00
4.175026579734213556e+03 3.162277660168379523e+00
4.461690882768480151e+03 5.623413251903491172e+00
4.795820078458362332e+03 1.000000000000000000e+01
5.195670701533856118e+03 1.778279410038922848e+01
5.692632632283901330e+03 3.162277660168379256e+01
6.338753433186195252e+03 5.623413251903490817e+01
7.227799018595318557e+03 1.000000000000000000e+02
8.498643137123603083e+03 1.778279410038922776e+02
1.022981261472414917e+04 3.162277660168379612e+02
