# Temperature (K), Pressure (bars)
7.267416682147833171e+02 9.999999999999999547e-07
7.557735312943148074e+02 1.778279410038922901e-06
7.848053944108830819e+02 3.162277660168379191e-06
8.164898770805427830e+02 5.623413251903491208e-06
8.506874522370704881e+02 1.000000000000000082e-05
8.876010806529395722e+02 1.778279410038922901e-05
9.273575235423168124e+02 3.162277660168379530e-05
9.696906595375994584e+02 5.623413251903490700e-05
1.014848675067272779e+03 1.000000000000000048e-04
1.062779541242337700e+03 1.778279410038922698e-04
1.114400487791306659e+03 3.162277660168379394e-04
1.171167084925266863e+03 5.623413251903490971e-04
1.235386053414770231e+03 1.000000000000000021e-03
1.308734381017673513e+03 1.778279410038922752e-03
1.396046650511130338e+03 3.162277660168379394e-03
1.500351764533912046e+03 5.623413251903490971e-03
1.653560717126385271e+03 1.000000000000000021e-02
1.881565235295450520e+03 1.778279410038922925e-02
2.127409464419617507e+03 3.162277660168379134e-02
2.345391714010580472e+03 5.623413251903491145e-02
2.542355846503406156e+03 1.000000000000000056e-01
2.726027081684263976e+03 1.778279410038922925e-01
2.903597372779133366e+03 3.162277660168379412e-01
3.080647380489343959e+03 5.623413251903490728e-01
3.262129987830859591e+03 1.000000000000000000e+00
3.452753401861536076e+03 1.778279410038922759e+00
3.656993150262569088e+03 3.162277660168379523e+00
3.879337044847500692e+03 5.623413251903491172e+00
4.124735685634797846e+03 1.000000000000000000e+01
4.399119661740583069e+03 1.778279410038922848e+01
4.710011294632734462e+03 3.162277660168379256e+01
5.067776220398080113e+03 5.623413251903490817e+01
5.490583017563270005e+03 1.000000000000000000e+02
5.993507834177038603e+03 1.778279410038922776e+02
6.604337494475211315e+03 3.162277660168379612e+02
