# Temperature (K), Pressure (bars)
8.962503387212959751e+02 1.000000000000000021e-03
9.426253952227999662e+02 1.778279410038922752e-03
9.890004528758734068e+02 3.162277660168379394e-03
1.034757576012553727e+03 5.623413251903490971e-03
1.080552540237574703e+03 1.000000000000000021e-02
1.127345268476715319e+03 1.778279410038922925e-02
1.176073956234006573e+03 3.162277660168379134e-02
1.229310764619453721e+03 5.623413251903491145e-02
1.290486238627064949e+03 1.000000000000000056e-01
1.367852603993353796e+03 1.778279410038922925e-01
1.480997623637828610e+03 3.162277660168379412e-01
1.638321969256339116e+03 5.623413251903490728e-01
1.835799296094273814e+03 1.000000000000000000e+00
2.083210803034547553e+03 1.778279410038922759e+00
2.368466606897010479e+03 3.162277660168379523e+00
2.653089294483721005e+03 5.623413251903491172e+00
2.925622423620441623e+03 1.000000000000000000e+01
3.194873471398160291e+03 1.778279410038922848e+01
3.469524817053263632e+03 3.162277660168379256e+01
3.756615842025434631e+03 5.623413251903490817e+01
4.063660040690677761e+03 1.000000000000000000e+02
4.394858217029367552e+03 1.778279410038922776e+02
4.765499684037106817e+03 3.162277660168379612e+02
