# Temperature (K), Pressure (bars)
2.365052751811591861e+03 9.999999999999999547e-07
2.387614668724732383e+03 1.778279410038922901e-06
2.410176585637872449e+03 3.162277660168379191e-06
2.432242278774083388e+03 5.623413251903491208e-06
2.454561050112284192e+03 1.000000000000000082e-05
2.477335918079413204e+03 1.778279410038922901e-05
2.499768668205406357e+03 3.162277660168379530e-05
2.521461941010347800e+03 5.623413251903490700e-05
2.541239699607568582e+03 1.000000000000000048e-04
2.556497222408008383e+03 1.778279410038922698e-04
2.565627662360679096e+03 3.162277660168379394e-04
2.572302283755408553e+03 5.623413251903490971e-04
2.584812425613142750e+03 1.000000000000000021e-03
2.609948477835887843e+03 1.778279410038922752e-03
2.648804631369331219e+03 3.162277660168379394e-03
2.701703620416194099e+03 5.623413251903490971e-03
2.767993883364561043e+03 1.000000000000000021e-02
2.855190456492338399e+03 1.778279410038922925e-02
2.973740284564428748e+03 3.162277660168379134e-02
3.113357854579724972e+03 5.623413251903491145e-02
3.267233016289295847e+03 1.000000000000000056e-01
3.442250187018742054e+03 1.778279410038922925e-01
3.645133381693166939e+03 3.162277660168379412e-01
3.879328508567270546e+03 5.623413251903490728e-01
4.163294300094851678e+03 1.000000000000000000e+00
4.480358679639594811e+03 1.778279410038922759e+00
4.886823214304451540e+03 3.162277660168379523e+00
5.449642495416348538e+03 5.623413251903491172e+00
6.289909186882781796e+03 1.000000000000000000e+01
7.570451815849298328e+03 1.778279410038922848e+01
9.282982936163874911e+03 3.162277660168379256e+01
1.000000000000000000e+04 5.623413251903490817e+01
1.000000000000000000e+04 1.000000000000000000e+02
1.000000000000000000e+04 1.778279410038922776e+02
1.000000000000000000e+04 3.162277660168379612e+02
