# Temperature (K), Pressure (bars)
2.188672699214223940e+03 9.999999999999999547e-07
2.215997992610000438e+03 1.778279410038922901e-06
2.243323286016425300e+03 3.162277660168379191e-06
2.271793083445265438e+03 5.623413251903491208e-06
2.298129882903054749e+03 1.000000000000000082e-05
2.318703747457201189e+03 1.778279410038922901e-05
2.333168986839456920e+03 3.162277660168379530e-05
2.347157316515669663e+03 5.623413251903490700e-05
2.369788413105251493e+03 1.000000000000000048e-04
2.406089633140734804e+03 1.778279410038922698e-04
2.455243469893760448e+03 3.162277660168379394e-04
2.515170327823432217e+03 5.623413251903490971e-04
2.585882728908995887e+03 1.000000000000000021e-03
2.668717286453429097e+03 1.778279410038922752e-03
2.765570470242314514e+03 3.162277660168379394e-03
2.878175732468711431e+03 5.623413251903490971e-03
3.006771285231313414e+03 1.000000000000000021e-02
3.152484752103649043e+03 1.778279410038922925e-02
3.321449333254191515e+03 3.162277660168379134e-02
3.530475706689171147e+03 5.623413251903491145e-02
3.776699754843424671e+03 1.000000000000000056e-01
4.113894865134258907e+03 1.778279410038922925e-01
4.656612941700074771e+03 3.162277660168379412e-01
5.545094811255323293e+03 5.623413251903490728e-01
6.803667169795206974e+03 1.000000000000000000e+00
8.360250782760722359e+03 1.778279410038922759e+00
9.884799652146044536e+03 3.162277660168379523e+00
1.151790586299509050e+04 5.623413251903491172e+00
1.356850194587393162e+04 1.000000000000000000e+01
1.616669729088370877e+04 1.778279410038922848e+01
1.944641334575874862e+04 3.162277660168379256e+01
2.355838080767830616e+04 5.623413251903490817e+01
2.865896542636273080e+04 1.000000000000000000e+02
3.487975738040033320e+04 1.778279410038922776e+02
4.229918654528765182e+04 3.162277660168379612e+02
