# Temperature (K), Pressure (bars)
8.522816066193737470e+02 3.162277660168379394e-04
8.994327880064478222e+02 5.623413251903490971e-04
9.465839709560408437e+02 1.000000000000000021e-03
9.935094488966417430e+02 1.778279410038922752e-03
1.040631297718858150e+03 3.162277660168379394e-03
1.088400596614399319e+03 5.623413251903490971e-03
1.137357315363742146e+03 1.000000000000000021e-02
1.188820915097765919e+03 1.778279410038922925e-02
1.245453476832951083e+03 3.162277660168379134e-02
1.312179480014345017e+03 5.623413251903491145e-02
1.394466887158335339e+03 1.000000000000000056e-01
1.504360649755087252e+03 1.778279410038922925e-01
1.664712963552021847e+03 3.162277660168379412e-01
1.890659657725827174e+03 5.623413251903490728e-01
2.161416348502822075e+03 1.000000000000000000e+00
2.434548990952171607e+03 1.778279410038922759e+00
2.693718917531974057e+03 3.162277660168379523e+00
2.944470680728901243e+03 5.623413251903491172e+00
3.192604308681466136e+03 1.000000000000000000e+01
3.445305263327192733e+03 1.778279410038922848e+01
3.711511035195945169e+03 3.162277660168379256e+01
3.997058022382832860e+03 5.623413251903490817e+01
4.308739383176793126e+03 1.000000000000000000e+02
4.649723439734651947e+03 1.778279410038922776e+02
5.037673492554846234e+03 3.162277660168379612e+02
