# Temperature (K), Pressure (bars)
8.307181663301462322e+02 3.162277660168379530e-05
8.928716500230098063e+02 5.623413251903490700e-05
9.550251359967573990e+02 1.000000000000000048e-04
1.013293794490580808e+03 1.778279410038922698e-04
1.069665191326892909e+03 3.162277660168379394e-04
1.129767937139273954e+03 5.623413251903490971e-04
1.191563394864867860e+03 1.000000000000000021e-03
1.246419084822475497e+03 1.778279410038922752e-03
1.292025732630868788e+03 3.162277660168379394e-03
1.358637536513857185e+03 5.623413251903490971e-03
1.487685130653177566e+03 1.000000000000000021e-02
1.665111965868664583e+03 1.778279410038922925e-02
1.835999142681308058e+03 3.162277660168379134e-02
1.972479826273956860e+03 5.623413251903491145e-02
2.085999602672693072e+03 1.000000000000000056e-01
2.218920707447550285e+03 1.778279410038922925e-01
2.404332630329219683e+03 3.162277660168379412e-01
2.613219286672843282e+03 5.623413251903490728e-01
2.817255275922642340e+03 1.000000000000000000e+00
3.021917307793291457e+03 1.778279410038922759e+00
3.231674088719758856e+03 3.162277660168379523e+00
3.450117615701537488e+03 5.623413251903491172e+00
3.681389859732019886e+03 1.000000000000000000e+01
3.930648504446657626e+03 1.778279410038922848e+01
4.205479879220271869e+03 3.162277660168379256e+01
4.511723921354407139e+03 5.623413251903490817e+01
4.857188444945208175e+03 1.000000000000000000e+02
5.245689114572190192e+03 1.778279410038922776e+02
5.700715584716648664e+03 3.162277660168379612e+02
