# Temperature (K), Pressure (bars)
1.629901881272529181e+03 9.999999999999999547e-07
1.672798066602056451e+03 1.778279410038922901e-06
1.715694251931583494e+03 3.162277660168379191e-06
1.760331544986024937e+03 5.623413251903491208e-06
1.809017163159929851e+03 1.000000000000000082e-05
1.860824607764194070e+03 1.778279410038922901e-05
1.914919470361991898e+03 3.162277660168379530e-05
1.971553829075453905e+03 5.623413251903490700e-05
2.031389110640236822e+03 1.000000000000000048e-04
2.095051284021595620e+03 1.778279410038922698e-04
2.163045486427002288e+03 3.162277660168379394e-04
2.238774924306150751e+03 5.623413251903490971e-04
2.328034580026526328e+03 1.000000000000000021e-03
2.431464500751441392e+03 1.778279410038922752e-03
2.545342814032794649e+03 3.162277660168379394e-03
2.668131921944208443e+03 5.623413251903490971e-03
2.800440362879924578e+03 1.000000000000000021e-02
2.944269360463556495e+03 1.778279410038922925e-02
3.103766040914265886e+03 3.162277660168379134e-02
3.289222078592892558e+03 5.623413251903491145e-02
3.478945324323090517e+03 1.000000000000000056e-01
3.701662694688351621e+03 1.778279410038922925e-01
3.960800532174860109e+03 3.162277660168379412e-01
4.281462087637130935e+03 5.623413251903490728e-01
4.731086886000735831e+03 1.000000000000000000e+00
5.441856236795378209e+03 1.778279410038922759e+00
6.555738721389133389e+03 3.162277660168379523e+00
8.100420052056317218e+03 5.623413251903491172e+00
9.814581749969624070e+03 1.000000000000000000e+01
1.000000000000000000e+04 1.778279410038922848e+01
1.000000000000000000e+04 3.162277660168379256e+01
1.000000000000000000e+04 5.623413251903490817e+01
1.000000000000000000e+04 1.000000000000000000e+02
1.000000000000000000e+04 1.778279410038922776e+02
1.000000000000000000e+04 3.162277660168379612e+02
