# Temperature (K), Pressure (bars)
1.049385329148275787e+03 3.162277660168379394e-04
1.089465680952606135e+03 5.623413251903490971e-04
1.129546031135678277e+03 1.000000000000000021e-03
1.164126350018406129e+03 1.778279410038922752e-03
1.192359546092106712e+03 3.162277660168379394e-03
1.218699698397951806e+03 5.623413251903490971e-03
1.246077298762065993e+03 1.000000000000000021e-02
1.279781776043535729e+03 1.778279410038922925e-02
1.328784068414137892e+03 3.162277660168379134e-02
1.389149668510349557e+03 5.623413251903491145e-02
1.456146225667480621e+03 1.000000000000000056e-01
1.540044827383262827e+03 1.778279410038922925e-01
1.638373784103530625e+03 3.162277660168379412e-01
1.744036778843287266e+03 5.623413251903490728e-01
1.876986191366926732e+03 1.000000000000000000e+00
2.083404822370804141e+03 1.778279410038922759e+00
2.368039393440311414e+03 3.162277660168379523e+00
2.662384865537572296e+03 5.623413251903491172e+00
2.935513585186306045e+03 1.000000000000000000e+01
3.204489916679719954e+03 1.778279410038922848e+01
3.479062947629954579e+03 3.162277660168379256e+01
3.766286611527512832e+03 5.623413251903490817e+01
4.073679396503706357e+03 1.000000000000000000e+02
4.405373964199463444e+03 1.778279410038922776e+02
4.776903874698873551e+03 3.162277660168379612e+02
