# Temperature (K), Pressure (bars)
9.549211541378296033e+02 5.623413251903491208e-06
1.004690747009796496e+03 1.000000000000000082e-05
1.054460339924894924e+03 1.778279410038922901e-05
1.102516418519814124e+03 3.162277660168379530e-05
1.148668940802169345e+03 5.623413251903490700e-05
1.194582545726152148e+03 1.000000000000000048e-04
1.243788334864788794e+03 1.778279410038922698e-04
1.300155325347956932e+03 3.162277660168379394e-04
1.372404405647017938e+03 5.623413251903490971e-04
1.460340334399571248e+03 1.000000000000000021e-03
1.555362381695818840e+03 1.778279410038922752e-03
1.658741463742908536e+03 3.162277660168379394e-03
1.760740535830717818e+03 5.623413251903490971e-03
1.857868622133805275e+03 1.000000000000000021e-02
1.962225486999675468e+03 1.778279410038922925e-02
2.099791710308008533e+03 3.162277660168379134e-02
2.284203690443279811e+03 5.623413251903491145e-02
2.475370067178085264e+03 1.000000000000000056e-01
2.652872276288845114e+03 1.778279410038922925e-01
2.830001380763683756e+03 3.162277660168379412e-01
3.010774474646996168e+03 5.623413251903490728e-01
3.197303698660435657e+03 1.000000000000000000e+00
3.391813452007568230e+03 1.778279410038922759e+00
3.597862012506898282e+03 3.162277660168379523e+00
3.820010321460228170e+03 5.623413251903491172e+00
4.063353061639650150e+03 1.000000000000000000e+01
4.333709657277589031e+03 1.778279410038922848e+01
4.638212160827208209e+03 3.162277660168379256e+01
4.986494923276977715e+03 5.623413251903490817e+01
5.395819154945751507e+03 1.000000000000000000e+02
5.879378191595429598e+03 1.778279410038922776e+02
6.461888118195982315e+03 3.162277660168379612e+02
