# Temperature (K), Pressure (bars)
8.660572459246163817e+02 3.162277660168379394e-04
9.153815523024002232e+02 5.623413251903490971e-04
9.647058599488975688e+02 1.000000000000000021e-03
1.013516960301764016e+03 1.778279410038922752e-03
1.061390963426668350e+03 3.162277660168379394e-03
1.110363311643824773e+03 5.623413251903490971e-03
1.163490977878551121e+03 1.000000000000000021e-02
1.226594750928910344e+03 1.778279410038922925e-02
1.305555126101934775e+03 3.162277660168379134e-02
1.439246072564726319e+03 5.623413251903491145e-02
1.659577428891457203e+03 1.000000000000000056e-01
1.920425083353245782e+03 1.778279410038922925e-01
2.179900291172194557e+03 3.162277660168379412e-01
2.428962946739029576e+03 5.623413251903490728e-01
2.661175918900940360e+03 1.000000000000000000e+00
2.881441167404673706e+03 1.778279410038922759e+00
3.097503583993289340e+03 3.162277660168379523e+00
3.316875213871709548e+03 5.623413251903491172e+00
3.545989361775336420e+03 1.000000000000000000e+01
3.790673888795749463e+03 1.778279410038922848e+01
4.059105290115418484e+03 3.162277660168379256e+01
4.355591257020209014e+03 5.623413251903490817e+01
4.687184200735212471e+03 1.000000000000000000e+02
5.057461039518437246e+03 1.778279410038922776e+02
5.487448454255012621e+03 3.162277660168379612e+02
