# Temperature (K), Pressure (bars)
1.488330447764539713e+03 9.999999999999999547e-07
1.506499656475404663e+03 1.778279410038922901e-06
1.524668865186921721e+03 3.162277660168379191e-06
1.545890051202148243e+03 5.623413251903491208e-06
1.571240375307510476e+03 1.000000000000000082e-05
1.602768187402028161e+03 1.778279410038922901e-05
1.641839698039395216e+03 3.162277660168379530e-05
1.688336936682907435e+03 5.623413251903490700e-05
1.742272833043020455e+03 1.000000000000000048e-04
1.803248666877078449e+03 1.778279410038922698e-04
1.868992841301601629e+03 3.162277660168379394e-04
1.939313881465017403e+03 5.623413251903490971e-04
2.014127312075585905e+03 1.000000000000000021e-03
2.097859382837768862e+03 1.778279410038922752e-03
2.201203414637153401e+03 3.162277660168379394e-03
2.321554224083330610e+03 5.623413251903490971e-03
2.448757863720104069e+03 1.000000000000000021e-02
2.580773084148724593e+03 1.778279410038922925e-02
2.719194549978822579e+03 3.162277660168379134e-02
2.865662668073941404e+03 5.623413251903491145e-02
3.021987245796635762e+03 1.000000000000000056e-01
3.190357880075218418e+03 1.778279410038922925e-01
3.373126145073981206e+03 3.162277660168379412e-01
3.572353857225857610e+03 5.623413251903490728e-01
3.790513631126577820e+03 1.000000000000000000e+00
4.032281827223254368e+03 1.778279410038922759e+00
4.305742387896538276e+03 3.162277660168379523e+00
4.623209522149061740e+03 5.623413251903491172e+00
4.998581605553866211e+03 1.000000000000000000e+01
5.467611584563917859e+03 1.778279410038922848e+01
6.084001418363371158e+03 3.162277660168379256e+01
6.942210550558916111e+03 5.623413251903490817e+01
8.194652861303875397e+03 1.000000000000000000e+02
9.929554048240108386e+03 1.778279410038922776e+02
1.204318059546909171e+04 3.162277660168379612e+02
