# Temperature (K), Pressure (bars)
7.581310200517863223e+02 1.000000000000000048e-04
8.038644954872738708e+02 1.778279410038922698e-04
8.495979720474351780e+02 3.162277660168379394e-04
8.945678798047589453e+02 5.623413251903490971e-04
9.394764331481179624e+02 1.000000000000000021e-03
9.853421503952383773e+02 1.778279410038922752e-03
1.033220446409983651e+03 3.162277660168379394e-03
1.085054686367442400e+03 5.623413251903490971e-03
1.143998645365223183e+03 1.000000000000000021e-02
1.213934484752161779e+03 1.778279410038922925e-02
1.300910172618175920e+03 3.162277660168379134e-02
1.415113011768836259e+03 5.623413251903491145e-02
1.583846267252086591e+03 1.000000000000000056e-01
1.819038641262339070e+03 1.778279410038922925e-01
2.082130510049456916e+03 3.162277660168379412e-01
2.338432238762516590e+03 5.623413251903490728e-01
2.580452621507098229e+03 1.000000000000000000e+00
2.808935347507942879e+03 1.778279410038922759e+00
3.030715530917757405e+03 3.162277660168379523e+00
3.253407832013141160e+03 5.623413251903491172e+00
3.483848810774789854e+03 1.000000000000000000e+01
3.728211461824283560e+03 1.778279410038922848e+01
3.994773351005053883e+03 3.162277660168379256e+01
4.287831949403186627e+03 5.623413251903490817e+01
4.614277154096746017e+03 1.000000000000000000e+02
4.977542486338870731e+03 1.778279410038922776e+02
5.397831498214130079e+03 3.162277660168379612e+02
