# Temperature (K), Pressure (bars)
7.589786274708277460e+02 3.162277660168379394e-04
7.967385632469482744e+02 5.623413251903490971e-04
8.344984998593432692e+02 1.000000000000000021e-03
8.715474830732033524e+02 1.778279410038922752e-03
9.092794588254208747e+02 3.162277660168379394e-03
9.480954835550272719e+02 5.623413251903490971e-03
9.881098406940532186e+02 1.000000000000000021e-02
1.030364180002967942e+03 1.778279410038922925e-02
1.078246912531241378e+03 3.162277660168379134e-02
1.136128885495236773e+03 5.623413251903491145e-02
1.212483987974244428e+03 1.000000000000000056e-01
1.311854802692739440e+03 1.778279410038922925e-01
1.461033350132526039e+03 3.162277660168379412e-01
1.686708268260468685e+03 5.623413251903490728e-01
1.953382006903593492e+03 1.000000000000000000e+00
2.229167973942464414e+03 1.778279410038922759e+00
2.506267393864517544e+03 3.162277660168379523e+00
2.774753154789912969e+03 5.623413251903491172e+00
3.036175286711179069e+03 1.000000000000000000e+01
3.297056643327986876e+03 1.778279410038922848e+01
3.567061069688566931e+03 3.162277660168379256e+01
3.852463349552989712e+03 5.623413251903490817e+01
4.160334395264177147e+03 1.000000000000000000e+02
4.494109289608059044e+03 1.778279410038922776e+02
4.870359597528424274e+03 3.162277660168379612e+02
