# Temperature (K), Pressure (bars)
1.930571255013961945e+03 9.999999999999999547e-07
1.995104577789739096e+03 1.778279410038922901e-06
2.059637900565516247e+03 3.162277660168379191e-06
2.115355160158461786e+03 5.623413251903491208e-06
2.161882192907498393e+03 1.000000000000000082e-05
2.201325520704401242e+03 1.778279410038922901e-05
2.235429617384259018e+03 3.162277660168379530e-05
2.266819573905347625e+03 5.623413251903490700e-05
2.298091502093592226e+03 1.000000000000000048e-04
2.331584317054776875e+03 1.778279410038922698e-04
2.369515556752463908e+03 3.162277660168379394e-04
2.413784970319667082e+03 5.623413251903490971e-04
2.466232710879125989e+03 1.000000000000000021e-03
2.527913232889611209e+03 1.778279410038922752e-03
2.598913512169862315e+03 3.162277660168379394e-03
2.674258473655565922e+03 5.623413251903490971e-03
2.753061511423430602e+03 1.000000000000000021e-02
2.851601627742023084e+03 1.778279410038922925e-02
2.981418482027367190e+03 3.162277660168379134e-02
3.140277494610543272e+03 5.623413251903491145e-02
3.332818725466923752e+03 1.000000000000000056e-01
3.524993315109750711e+03 1.778279410038922925e-01
3.745215141306165606e+03 3.162277660168379412e-01
4.002838478721293541e+03 5.623413251903490728e-01
4.297069936404747750e+03 1.000000000000000000e+00
4.674050142156474067e+03 1.778279410038922759e+00
5.198096400209341482e+03 3.162277660168379523e+00
5.991772449981177488e+03 5.623413251903491172e+00
7.220587425250485467e+03 1.000000000000000000e+01
8.881017424372734240e+03 1.778279410038922848e+01
1.000000000000000000e+04 3.162277660168379256e+01
1.000000000000000000e+04 5.623413251903490817e+01
1.000000000000000000e+04 1.000000000000000000e+02
1.000000000000000000e+04 1.778279410038922776e+02
1.000000000000000000e+04 3.162277660168379612e+02
