# Temperature (K), Pressure (bars)
7.264793316386537754e+02 9.999999999999999547e-07
7.540832776566679740e+02 1.778279410038922901e-06
7.816872236803294527e+02 3.162277660168379191e-06
8.123921344917185934e+02 5.623413251903491208e-06
8.457548224894642317e+02 1.000000000000000082e-05
8.817562661196782301e+02 1.778279410038922901e-05
9.208501206451140888e+02 3.162277660168379530e-05
9.625865751009195037e+02 5.623413251903490700e-05
1.007060814773558832e+03 1.000000000000000048e-04
1.054442569951833320e+03 1.778279410038922698e-04
1.105414687937681720e+03 3.162277660168379394e-04
1.161661475439891547e+03 5.623413251903490971e-04
1.224913450564626373e+03 1.000000000000000021e-03
1.298163339257072494e+03 1.778279410038922752e-03
1.383149793991380875e+03 3.162277660168379394e-03
1.490208546489208857e+03 5.623413251903490971e-03
1.641688234288956892e+03 1.000000000000000021e-02
1.845609043856564767e+03 1.778279410038922925e-02
2.079321150424989355e+03 3.162277660168379134e-02
2.305763793755777897e+03 5.623413251903491145e-02
2.509403993573603657e+03 1.000000000000000056e-01
2.697192834415234302e+03 1.778279410038922925e-01
2.877161326116111013e+03 3.162277660168379412e-01
3.055484662863339508e+03 5.623413251903490728e-01
3.237384672138912720e+03 1.000000000000000000e+00
3.427702402232090208e+03 1.778279410038922759e+00
3.630965239988661324e+03 3.162277660168379523e+00
3.851642187577912409e+03 5.623413251903491172e+00
4.094568261382403762e+03 1.000000000000000000e+01
4.365447098325596926e+03 1.778279410038922848e+01
4.671455378184618894e+03 3.162277660168379256e+01
5.022429833965284161e+03 5.623413251903490817e+01
5.436176732984367845e+03 1.000000000000000000e+02
5.926174790293912338e+03 1.778279410038922776e+02
6.517902937798308812e+03 3.162277660168379612e+02
