# Temperature (K), Pressure (bars)
1.577088303524360299e+03 3.162277660168379530e-05
1.598439305000490776e+03 5.623413251903490700e-05
1.619790308874581342e+03 1.000000000000000048e-04
1.644651604966731156e+03 1.778279410038922698e-04
1.674278594605915941e+03 3.162277660168379394e-04
1.710082230874554398e+03 5.623413251903490971e-04
1.749983404023472303e+03 1.000000000000000021e-03
1.792651235998704578e+03 1.778279410038922752e-03
1.839354281830113678e+03 3.162277660168379394e-03
1.889549127206297953e+03 5.623413251903490971e-03
1.942465072176343256e+03 1.000000000000000021e-02
1.998638237272309198e+03 1.778279410038922925e-02
2.059397897655834640e+03 3.162277660168379134e-02
2.127964319402919500e+03 5.623413251903491145e-02
2.207559455824256474e+03 1.000000000000000056e-01
2.309903212350033300e+03 1.778279410038922925e-01
2.461965874808967328e+03 3.162277660168379412e-01
2.658813107011249031e+03 5.623413251903490728e-01
2.861738518273115460e+03 1.000000000000000000e+00
3.061423032840875749e+03 1.778279410038922759e+00
3.268460766201234037e+03 3.162277660168379523e+00
3.486369403326530573e+03 5.623413251903491172e+00
3.718435598914945786e+03 1.000000000000000000e+01
3.969298026805198788e+03 1.778279410038922848e+01
4.246257616328121003e+03 3.162277660168379256e+01
4.555675595022310517e+03 5.623413251903490817e+01
4.905704279518817202e+03 1.000000000000000000e+02
5.300557720852526472e+03 1.778279410038922776e+02
5.765364261141661700e+03 3.162277660168379612e+02
