# Temperature (K), Pressure (bars)
1.005545956108169321e+03 3.162277660168379394e-04
1.046375459460550246e+03 5.623413251903490971e-04
1.087204965538436454e+03 1.000000000000000021e-03
1.130606096387182788e+03 1.778279410038922752e-03
1.176708970125640235e+03 3.162277660168379394e-03
1.225916180868909123e+03 5.623413251903490971e-03
1.277443646042932869e+03 1.000000000000000021e-02
1.331211895321931024e+03 1.778279410038922925e-02
1.390467421381822305e+03 3.162277660168379134e-02
1.459900046232547538e+03 5.623413251903491145e-02
1.546682545899280740e+03 1.000000000000000056e-01
1.655657978270189233e+03 1.778279410038922925e-01
1.790101073486191808e+03 3.162277660168379412e-01
1.944020672234281164e+03 5.623413251903490728e-01
2.136362432754861402e+03 1.000000000000000000e+00
2.390942048936362426e+03 1.778279410038922759e+00
2.661494271900990952e+03 3.162277660168379523e+00
2.915475062601894479e+03 5.623413251903491172e+00
3.166108417345390990e+03 1.000000000000000000e+01
3.420710146704117506e+03 1.778279410038922848e+01
3.687620420764066694e+03 3.162277660168379256e+01
3.973179363527231544e+03 5.623413251903490817e+01
4.284330427206113200e+03 1.000000000000000000e+02
4.624294906088700372e+03 1.778279410038922776e+02
5.010507254023167661e+03 3.162277660168379612e+02
