# Temperature (K), Pressure (bars)
7.841311105593148341e+02 3.162277660168379394e-04
8.227421744136979669e+02 5.623413251903490971e-04
8.613532390113020938e+02 1.000000000000000021e-03
8.998474953841293882e+02 1.778279410038922752e-03
9.387225228788270215e+02 3.162277660168379394e-03
9.785423875028996008e+02 5.623413251903490971e-03
1.019606737531440103e+03 1.000000000000000021e-02
1.062839023992756893e+03 1.778279410038922925e-02
1.111316824917707436e+03 3.162277660168379134e-02
1.169516813172982211e+03 5.623413251903491145e-02
1.244309370456361421e+03 1.000000000000000056e-01
1.345853876455969839e+03 1.778279410038922925e-01
1.507525576989402680e+03 3.162277660168379412e-01
1.746381963398336438e+03 5.623413251903490728e-01
2.019716535181787549e+03 1.000000000000000000e+00
2.295353537501203391e+03 1.778279410038922759e+00
2.567394056009798078e+03 3.162277660168379523e+00
2.830149035719681251e+03 5.623413251903491172e+00
3.086749069364328534e+03 1.000000000000000000e+01
3.344410595770654709e+03 1.778279410038922848e+01
3.612871535354359821e+03 3.162277660168379256e+01
3.898064488899441130e+03 5.623413251903490817e+01
4.207008853440626808e+03 1.000000000000000000e+02
4.542935924067674932e+03 1.778279410038922776e+02
4.922883810498192361e+03 3.162277660168379612e+02
