# Temperature (K), Pressure (bars)
1.914046404362074099e+03 9.999999999999999547e-07
1.954157550404796893e+03 1.778279410038922901e-06
1.994268696447600632e+03 3.162277660168379191e-06
2.036617123915955290e+03 5.623413251903491208e-06
2.080241026661834439e+03 1.000000000000000082e-05
2.123451658422389301e+03 1.778279410038922901e-05
2.166805822073548370e+03 3.162277660168379530e-05
2.211651563213238660e+03 5.623413251903490700e-05
2.259489198034149013e+03 1.000000000000000048e-04
2.312064955934243699e+03 1.778279410038922698e-04
2.370516693658450549e+03 3.162277660168379394e-04
2.436060400175000268e+03 5.623413251903490971e-04
2.510622402293854066e+03 1.000000000000000021e-03
2.597733598082612389e+03 1.778279410038922752e-03
2.700191296745704676e+03 3.162277660168379394e-03
2.817164880957602691e+03 5.623413251903490971e-03
2.948107756327152856e+03 1.000000000000000021e-02
3.095425187559177630e+03 1.778279410038922925e-02
3.265265447838160071e+03 3.162277660168379134e-02
3.477574600688612918e+03 5.623413251903491145e-02
3.700796108556065519e+03 1.000000000000000056e-01
3.988106906701614207e+03 1.778279410038922925e-01
4.404135488850150978e+03 3.162277660168379412e-01
5.100371244149398080e+03 5.623413251903490728e-01
6.139913827179482723e+03 1.000000000000000000e+00
7.597949751629224920e+03 1.778279410038922759e+00
9.198875080575291577e+03 3.162277660168379523e+00
1.083761457432249153e+04 5.623413251903491172e+00
1.276709466021697517e+04 1.000000000000000000e+01
1.521183071492654381e+04 1.778279410038922848e+01
1.829783427657662469e+04 3.162277660168379256e+01
2.216693331458968169e+04 5.623413251903490817e+01
2.696625802331282102e+04 1.000000000000000000e+02
3.281962636534011108e+04 1.778279410038922776e+02
3.980083584968528157e+04 3.162277660168379612e+02
