# Temperature (K), Pressure (bars)
1.735687231806551381e+03 9.999999999999999547e-07
1.765559760396123693e+03 1.778279410038922901e-06
1.795432288985696232e+03 3.162277660168379191e-06
1.830478890438001145e+03 5.623413251903491208e-06
1.868481125699765698e+03 1.000000000000000082e-05
1.909622372775870645e+03 1.778279410038922901e-05
1.953903200188776509e+03 3.162277660168379530e-05
2.001046128362829677e+03 5.623413251903490700e-05
2.052232838671213358e+03 1.000000000000000048e-04
2.107670018842356058e+03 1.778279410038922698e-04
2.168225911843897393e+03 3.162277660168379394e-04
2.235282838534139046e+03 5.623413251903490971e-04
2.312130045952758337e+03 1.000000000000000021e-03
2.402173050849044557e+03 1.778279410038922752e-03
2.503606079421514096e+03 3.162277660168379394e-03
2.613804862489878360e+03 5.623413251903490971e-03
2.733399529480505862e+03 1.000000000000000021e-02
2.864521353930774694e+03 1.778279410038922925e-02
3.010361096077303955e+03 3.162277660168379134e-02
3.175344613864386702e+03 5.623413251903491145e-02
3.368995196474425484e+03 1.000000000000000056e-01
3.565819830494377129e+03 1.778279410038922925e-01
3.794130764032646766e+03 3.162277660168379412e-01
4.064517482514091625e+03 5.623413251903490728e-01
4.381340781253106798e+03 1.000000000000000000e+00
4.804823336932964594e+03 1.778279410038922759e+00
5.436316057417967386e+03 3.162277660168379523e+00
6.456082230244448510e+03 5.623413251903491172e+00
7.941554359781532185e+03 1.000000000000000000e+01
9.704304978572312393e+03 1.778279410038922848e+01
1.000000000000000000e+04 3.162277660168379256e+01
1.000000000000000000e+04 5.623413251903490817e+01
1.000000000000000000e+04 1.000000000000000000e+02
1.000000000000000000e+04 1.778279410038922776e+02
1.000000000000000000e+04 3.162277660168379612e+02
