# Temperature (K), Pressure (bars)
9.031119709023087125e+02 3.162277660168379530e-05
9.580897854377456042e+02 5.623413251903490700e-05
1.013067599738687250e+03 1.000000000000000048e-04
1.059772653179384861e+03 1.778279410038922698e-04
1.100918788210734192e+03 3.162277660168379394e-04
1.143841449230861599e+03 5.623413251903490971e-04
1.188836762970990776e+03 1.000000000000000021e-03
1.228767455657652818e+03 1.778279410038922752e-03
1.261583458874767302e+03 3.162277660168379394e-03
1.293528845793409346e+03 5.623413251903490971e-03
1.329912972337962628e+03 1.000000000000000021e-02
1.365074180089247875e+03 1.778279410038922925e-02
1.409063362950212422e+03 3.162277660168379134e-02
1.503885942362668629e+03 5.623413251903491145e-02
1.663184948045349529e+03 1.000000000000000056e-01
1.866650510662470879e+03 1.778279410038922925e-01
2.102147812763316779e+03 3.162277660168379412e-01
2.350155990667555216e+03 5.623413251903490728e-01
2.589490932077141679e+03 1.000000000000000000e+00
2.817630637136859150e+03 1.778279410038922759e+00
3.040232273028081181e+03 3.162277660168379523e+00
3.263834687321945694e+03 5.623413251903491172e+00
3.495091995296515051e+03 1.000000000000000000e+01
3.740271663981975962e+03 1.778279410038922848e+01
4.007467034603939283e+03 3.162277660168379256e+01
4.301487757654439520e+03 5.623413251903490817e+01
4.629270204243907756e+03 1.000000000000000000e+02
4.993996596645488353e+03 1.778279410038922776e+02
5.416508865640381373e+03 3.162277660168379612e+02
