# Temperature (K), Pressure (bars)
2.389009742680907948e+03 9.999999999999999547e-07
2.415171723419127375e+03 1.778279410038922901e-06
2.441333704157345892e+03 3.162277660168379191e-06
2.468047887684136185e+03 5.623413251903491208e-06
2.494749665953905605e+03 1.000000000000000082e-05
2.521401083610068326e+03 1.778279410038922901e-05
2.547949799432631153e+03 3.162277660168379530e-05
2.574500746446154153e+03 5.623413251903490700e-05
2.600761906452903531e+03 1.000000000000000048e-04
2.625169454592002694e+03 1.778279410038922698e-04
2.645530308121973121e+03 3.162277660168379394e-04
2.660964934940202511e+03 5.623413251903490971e-04
2.674635216660008155e+03 1.000000000000000021e-03
2.693722419347795949e+03 1.778279410038922752e-03
2.724778370908284614e+03 3.162277660168379394e-03
2.771263585115745173e+03 5.623413251903490971e-03
2.833841762593222029e+03 1.000000000000000021e-02
2.916212309811152863e+03 1.778279410038922925e-02
3.026309917264690739e+03 3.162277660168379134e-02
3.163134317576626472e+03 5.623413251903491145e-02
3.321128669487030947e+03 1.000000000000000056e-01
3.502925768008487466e+03 1.778279410038922925e-01
3.717601593631235573e+03 3.162277660168379412e-01
3.983443788717429015e+03 5.623413251903490728e-01
4.269572208219878121e+03 1.000000000000000000e+00
4.632153652526989390e+03 1.778279410038922759e+00
5.129617676112981826e+03 3.162277660168379523e+00
5.878498824337336373e+03 5.623413251903491172e+00
7.038864949169669671e+03 1.000000000000000000e+01
8.655395168230274066e+03 1.778279410038922848e+01
1.054124271843878887e+04 3.162277660168379256e+01
1.277200846914344584e+04 5.623413251903490817e+01
1.553909077636935763e+04 1.000000000000000000e+02
1.891653080087477792e+04 1.778279410038922776e+02
2.294578352259475650e+04 3.162277660168379612e+02
