# Temperature (K), Pressure (bars)
2.319454861006876399e+03 9.999999999999999547e-07
2.339842878326484424e+03 1.778279410038922901e-06
2.360230895646092904e+03 3.162277660168379191e-06
2.387417097350096356e+03 5.623413251903491208e-06
2.419058711929437322e+03 1.000000000000000082e-05
2.452604225395494268e+03 1.778279410038922901e-05
2.489557411896535541e+03 3.162277660168379530e-05
2.530293315778362285e+03 5.623413251903490700e-05
2.574589435156708987e+03 1.000000000000000048e-04
2.622914571163288656e+03 1.778279410038922698e-04
2.674579718860007233e+03 3.162277660168379394e-04
2.727949006103873671e+03 5.623413251903490971e-04
2.780992734026007838e+03 1.000000000000000021e-03
2.831017821691431436e+03 1.778279410038922752e-03
2.874902298339657591e+03 3.162277660168379394e-03
2.913729273812368774e+03 5.623413251903490971e-03
2.952877095419884881e+03 1.000000000000000021e-02
3.002597261219048960e+03 1.778279410038922925e-02
3.060448261901519800e+03 3.162277660168379134e-02
3.133765607173160333e+03 5.623413251903491145e-02
3.255404418284158510e+03 1.000000000000000056e-01
3.421996437110079114e+03 1.778279410038922925e-01
3.618220545599160687e+03 3.162277660168379412e-01
3.852480386284130873e+03 5.623413251903490728e-01
4.139305946912428226e+03 1.000000000000000000e+00
4.448575637516162715e+03 1.778279410038922759e+00
4.841198309519578288e+03 3.162277660168379523e+00
5.379637090609800907e+03 5.623413251903491172e+00
6.196493008175007162e+03 1.000000000000000000e+01
7.464122578447182605e+03 1.778279410038922848e+01
9.160903565683449415e+03 3.162277660168379256e+01
1.000000000000000000e+04 5.623413251903490817e+01
1.000000000000000000e+04 1.000000000000000000e+02
1.000000000000000000e+04 1.778279410038922776e+02
1.000000000000000000e+04 3.162277660168379612e+02
