# Temperature (K), Pressure (bars)
7.436459597181913068e+02 1.000000000000000048e-04
7.895982837579490479e+02 1.778279410038922698e-04
8.355506088112422276e+02 3.162277660168379394e-04
8.804710840128717564e+02 5.623413251903490971e-04
9.255165755935737479e+02 1.000000000000000021e-03
9.724831011872923909e+02 1.778279410038922752e-03
1.023830217130656251e+03 3.162277660168379394e-03
1.082984914921662948e+03 5.623413251903490971e-03
1.153249205357699338e+03 1.000000000000000021e-02
1.240634258222957669e+03 1.778279410038922925e-02
1.354063675483648240e+03 3.162277660168379134e-02
1.518620327384418715e+03 5.623413251903491145e-02
1.749247917180987997e+03 1.000000000000000056e-01
2.010377437919374188e+03 1.778279410038922925e-01
2.265416907486839591e+03 3.162277660168379412e-01
2.504162374025961981e+03 5.623413251903490728e-01
2.726081664134092989e+03 1.000000000000000000e+00
2.938302625643154443e+03 1.778279410038922759e+00
3.148979450555073527e+03 3.162277660168379523e+00
3.365104980749641072e+03 5.623413251903491172e+00
3.592523174217310952e+03 1.000000000000000000e+01
3.836716596143058723e+03 1.778279410038922848e+01
4.105820878850071495e+03 3.162277660168379256e+01
4.403919808265932261e+03 5.623413251903490817e+01
4.738101853359211418e+03 1.000000000000000000e+02
5.111941651522216489e+03 1.778279410038922776e+02
5.547285608146253253e+03 3.162277660168379612e+02
