# Temperature (K), Pressure (bars)
2.297084052813966537e+03 9.999999999999999547e-07
2.324244134183484221e+03 1.778279410038922901e-06
2.351404215553002359e+03 3.162277660168379191e-06
2.381730335287335947e+03 5.623413251903491208e-06
2.413694542959748105e+03 1.000000000000000082e-05
2.446174096842181825e+03 1.778279410038922901e-05
2.478851552135782640e+03 3.162277660168379530e-05
2.509149532146583169e+03 5.623413251903490700e-05
2.530887300150026476e+03 1.000000000000000048e-04
2.538764360023980316e+03 1.778279410038922698e-04
2.541291010903454662e+03 3.162277660168379394e-04
2.557750996675045371e+03 5.623413251903490971e-04
2.597612933879931916e+03 1.000000000000000021e-03
2.656996777402900989e+03 1.778279410038922752e-03
2.729324884628738346e+03 3.162277660168379394e-03
2.811015192183605450e+03 5.623413251903490971e-03
2.897500003616683898e+03 1.000000000000000021e-02
2.991992394062539461e+03 1.778279410038922925e-02
3.111905156790181081e+03 3.162277660168379134e-02
3.265366551796633757e+03 5.623413251903491145e-02
3.454286902935783019e+03 1.000000000000000056e-01
3.705612826942100128e+03 1.778279410038922925e-01
3.954129527838589638e+03 3.162277660168379412e-01
4.269439429927692800e+03 5.623413251903490728e-01
4.709829523483123012e+03 1.000000000000000000e+00
5.415785951986722466e+03 1.778279410038922759e+00
6.572072540255731838e+03 3.162277660168379523e+00
8.125088701921435131e+03 5.623413251903491172e+00
9.839910245458733698e+03 1.000000000000000000e+01
1.000000000000000000e+04 1.778279410038922848e+01
1.000000000000000000e+04 3.162277660168379256e+01
1.000000000000000000e+04 5.623413251903490817e+01
1.000000000000000000e+04 1.000000000000000000e+02
1.000000000000000000e+04 1.778279410038922776e+02
1.000000000000000000e+04 3.162277660168379612e+02
