# Temperature (K), Pressure (bars)
1.008074743900316435e+03 3.162277660168379394e-04
1.055856472020018828e+03 5.623413251903490971e-04
1.103638198229735508e+03 1.000000000000000021e-03
1.143048180396201360e+03 1.778279410038922752e-03
1.177908488485302087e+03 3.162277660168379394e-03
1.212067347429425354e+03 5.623413251903490971e-03
1.246054189229309031e+03 1.000000000000000021e-02
1.278543690385572745e+03 1.778279410038922925e-02
1.307687184102424453e+03 3.162277660168379134e-02
1.336531235674182881e+03 5.623413251903491145e-02
1.370099692795777855e+03 1.000000000000000056e-01
1.409761732937807437e+03 1.778279410038922925e-01
1.465805714480574579e+03 3.162277660168379412e-01
1.546903612285613235e+03 5.623413251903490728e-01
1.657413295647218092e+03 1.000000000000000000e+00
1.796068489270353666e+03 1.778279410038922759e+00
1.983873130742662852e+03 3.162277660168379523e+00
2.252723013785158855e+03 5.623413251903491172e+00
2.556765146452642057e+03 1.000000000000000000e+01
2.852330730266060982e+03 1.778279410038922848e+01
3.148219937019041026e+03 3.162277660168379256e+01
3.447479635362514728e+03 5.623413251903490817e+01
3.757864347775183433e+03 1.000000000000000000e+02
4.084819429492899872e+03 1.778279410038922776e+02
4.442417426170747603e+03 3.162277660168379612e+02
