# Temperature (K), Pressure (bars)
7.707919543384060717e+02 3.162277660168379394e-04
8.134834202347960854e+02 5.623413251903490971e-04
8.561748869719526738e+02 1.000000000000000021e-03
8.984414575498217346e+02 1.778279410038922752e-03
9.406882031672815856e+02 3.162277660168379394e-03
9.843494196049874745e+02 5.623413251903490971e-03
1.031786078884842482e+03 1.000000000000000021e-02
1.086485923397801344e+03 1.778279410038922925e-02
1.153304093381727398e+03 3.162277660168379134e-02
1.238637361869549750e+03 5.623413251903491145e-02
1.353551483476858948e+03 1.000000000000000056e-01
1.527769689683051865e+03 1.778279410038922925e-01
1.770400062219486927e+03 3.162277660168379412e-01
2.040393195344176775e+03 5.623413251903490728e-01
2.307802724889661022e+03 1.000000000000000000e+00
2.566133380049697735e+03 1.778279410038922759e+00
2.812314730574338682e+03 3.162277660168379523e+00
3.051431906763572442e+03 5.623413251903491172e+00
3.291147826560192698e+03 1.000000000000000000e+01
3.539019672430662467e+03 1.778279410038922848e+01
3.804058836660366524e+03 3.162277660168379256e+01
4.091046832533214001e+03 5.623413251903490817e+01
4.406639410013643101e+03 1.000000000000000000e+02
4.754036208096092196e+03 1.778279410038922776e+02
5.151432643508535875e+03 3.162277660168379612e+02
