# Temperature (K), Pressure (bars)
1.127471676885162879e+03 9.999999999999999547e-07
1.186393155436464895e+03 1.778279410038922901e-06
1.245314633987766683e+03 3.162277660168379191e-06
1.310602150966907629e+03 5.623413251903491208e-06
1.376706862989488400e+03 1.000000000000000082e-05
1.439395875732382137e+03 1.778279410038922901e-05
1.496961239207570543e+03 3.162277660168379530e-05
1.562260484883303889e+03 5.623413251903490700e-05
1.650726089043971342e+03 1.000000000000000048e-04
1.740785915335156915e+03 1.778279410038922698e-04
1.817935373313912805e+03 3.162277660168379394e-04
1.891622791025719380e+03 5.623413251903490971e-04
1.967088985298620628e+03 1.000000000000000021e-03
2.050876038506783516e+03 1.778279410038922752e-03
2.154316169724106203e+03 3.162277660168379394e-03
2.280057179748993349e+03 5.623413251903490971e-03
2.416668359091521779e+03 1.000000000000000021e-02
2.557702433314710106e+03 1.778279410038922925e-02
2.704715197213721240e+03 3.162277660168379134e-02
2.859460472077102168e+03 5.623413251903491145e-02
3.023893274904725331e+03 1.000000000000000056e-01
3.199737222560168448e+03 1.778279410038922925e-01
3.388027828145258354e+03 3.162277660168379412e-01
3.590101689405994875e+03 5.623413251903490728e-01
3.809519307058383220e+03 1.000000000000000000e+00
4.052648364681803287e+03 1.778279410038922759e+00
4.328636489454672301e+03 3.162277660168379523e+00
4.650557342121181136e+03 5.623413251903491172e+00
5.034498753627201950e+03 1.000000000000000000e+01
5.516652431984679424e+03 1.778279410038922848e+01
6.149428850808941206e+03 3.162277660168379256e+01
7.022120454605723353e+03 5.623413251903490817e+01
8.289511958372060690e+03 1.000000000000000000e+02
1.004707938401392494e+04 1.778279410038922776e+02
1.218266538055697674e+04 3.162277660168379612e+02
