# Temperature (K), Pressure (bars)
1.068859298101833701e+03 1.000000000000000048e-04
1.110866117904104840e+03 1.778279410038922698e-04
1.152872939600560130e+03 3.162277660168379394e-04
1.196459865184519913e+03 5.623413251903490971e-04
1.242557058102019937e+03 1.000000000000000021e-03
1.292248244996035510e+03 1.778279410038922752e-03
1.346996294187138574e+03 3.162277660168379394e-03
1.410811667625489690e+03 5.623413251903490971e-03
1.481367324905095529e+03 1.000000000000000021e-02
1.558194689213234597e+03 1.778279410038922925e-02
1.650867165603570356e+03 3.162277660168379134e-02
1.749738247499233921e+03 5.623413251903491145e-02
1.852367777203251080e+03 1.000000000000000056e-01
1.970158994065855040e+03 1.778279410038922925e-01
2.126493372049889786e+03 3.162277660168379412e-01
2.342781677198045600e+03 5.623413251903490728e-01
2.579871314221034936e+03 1.000000000000000000e+00
2.805454549666296316e+03 1.778279410038922759e+00
3.027744877643529435e+03 3.162277660168379523e+00
3.252708562227258426e+03 5.623413251903491172e+00
3.485517989016404499e+03 1.000000000000000000e+01
3.731709571669876823e+03 1.778279410038922848e+01
3.998986631007294818e+03 3.162277660168379256e+01
4.292808450245171116e+03 5.623413251903490817e+01
4.620180898676413562e+03 1.000000000000000000e+02
4.984647913627604794e+03 1.778279410038922776e+02
5.406528654589792495e+03 3.162277660168379612e+02
