# Temperature (K), Pressure (bars)
1.255635079789551128e+03 5.623413251903490971e-04
1.286353067641535063e+03 1.000000000000000021e-03
1.317071057876045188e+03 1.778279410038922752e-03
1.351370031967194791e+03 3.162277660168379394e-03
1.390839183812320471e+03 5.623413251903490971e-03
1.436847312220927051e+03 1.000000000000000021e-02
1.488041133122311749e+03 1.778279410038922925e-02
1.546263810190005188e+03 3.162277660168379134e-02
1.617409929960415411e+03 5.623413251903491145e-02
1.693543737546377770e+03 1.000000000000000056e-01
1.765880667658779657e+03 1.778279410038922925e-01
1.843380391879853278e+03 3.162277660168379412e-01
1.935738463413616500e+03 5.623413251903490728e-01
2.051753043012377020e+03 1.000000000000000000e+00
2.193627498473332253e+03 1.778279410038922759e+00
2.390772960898936617e+03 3.162277660168379523e+00
2.663261169801776305e+03 5.623413251903491172e+00
2.949731629884535778e+03 1.000000000000000000e+01
3.219004102232824152e+03 1.778279410038922848e+01
3.492964145813765754e+03 3.162277660168379256e+01
3.779965304265506347e+03 5.623413251903490817e+01
4.087457742995008630e+03 1.000000000000000000e+02
4.419568817825360384e+03 1.778279410038922776e+02
4.791747721879810342e+03 3.162277660168379612e+02
