# Temperature (K), Pressure (bars)
1.886638876717490803e+03 9.999999999999999547e-07
1.889359051522134450e+03 1.778279410038922901e-06
1.892079226330039546e+03 3.162277660168379191e-06
1.900628087689755148e+03 5.623413251903491208e-06
1.915806028458516948e+03 1.000000000000000082e-05
1.935939496534175760e+03 1.778279410038922901e-05
1.960137174618179870e+03 3.162277660168379530e-05
1.988997993990356917e+03 5.623413251903490700e-05
2.022977413200784213e+03 1.000000000000000048e-04
2.060577194325861456e+03 1.778279410038922698e-04
2.100886056309094329e+03 3.162277660168379394e-04
2.144797668617806266e+03 5.623413251903490971e-04
2.192598582550668652e+03 1.000000000000000021e-03
2.245686989559137146e+03 1.778279410038922752e-03
2.304391773477282186e+03 3.162277660168379394e-03
2.374367694798663706e+03 5.623413251903490971e-03
2.467799124564326121e+03 1.000000000000000021e-02
2.581841523590836914e+03 1.778279410038922925e-02
2.706766238127374891e+03 3.162277660168379134e-02
2.841542801367355423e+03 5.623413251903491145e-02
2.988017251864745504e+03 1.000000000000000056e-01
3.148705250250663539e+03 1.778279410038922925e-01
3.326016573987774791e+03 3.162277660168379412e-01
3.521111004308459087e+03 5.623413251903490728e-01
3.734754112784131394e+03 1.000000000000000000e+00
3.969958655588629881e+03 1.778279410038922759e+00
4.233288121228068121e+03 3.162277660168379523e+00
4.534872675994804013e+03 5.623413251903491172e+00
4.885464989961547872e+03 1.000000000000000000e+01
5.313639956903230996e+03 1.778279410038922848e+01
5.858679806811587696e+03 3.162277660168379256e+01
6.592681582463889754e+03 5.623413251903490817e+01
7.638743151819036029e+03 1.000000000000000000e+02
9.134747117016215270e+03 1.778279410038922776e+02
1.104795953977295176e+04 3.162277660168379612e+02
