# Temperature (K), Pressure (bars)
1.515045669016753436e+03 9.999999999999999547e-07
1.526605185831936979e+03 1.778279410038922901e-06
1.538164702677998093e+03 3.162277660168379191e-06
1.557201311186774092e+03 5.623413251903491208e-06
1.584526517339347038e+03 1.000000000000000082e-05
1.619349575403785366e+03 1.778279410038922901e-05
1.658489082415671874e+03 3.162277660168379530e-05
1.701134163969263227e+03 5.623413251903490700e-05
1.745292779152144249e+03 1.000000000000000048e-04
1.787807821370120109e+03 1.778279410038922698e-04
1.831457346024797971e+03 3.162277660168379394e-04
1.877955325492838256e+03 5.623413251903490971e-04
1.926859289085716910e+03 1.000000000000000021e-03
1.978450594751084509e+03 1.778279410038922752e-03
2.033956364980785111e+03 3.162277660168379394e-03
2.094666470213124740e+03 5.623413251903490971e-03
2.163241552406590927e+03 1.000000000000000021e-02
2.243027361705659132e+03 1.778279410038922925e-02
2.350471092388504985e+03 3.162277660168379134e-02
2.495029946789219593e+03 5.623413251903491145e-02
2.651753565595915461e+03 1.000000000000000056e-01
2.808310735280681456e+03 1.778279410038922925e-01
2.972759914785194724e+03 3.162277660168379412e-01
3.147741157862131786e+03 5.623413251903490728e-01
3.334486378518182391e+03 1.000000000000000000e+00
3.533794412255545467e+03 1.778279410038922759e+00
3.747981225175676627e+03 3.162277660168379523e+00
3.981320655996645655e+03 5.623413251903491172e+00
4.239433041928552484e+03 1.000000000000000000e+01
4.529349159819302258e+03 1.778279410038922848e+01
4.860426626954013955e+03 3.162277660168379256e+01
5.248740529565387078e+03 5.623413251903490817e+01
5.708737496849025774e+03 1.000000000000000000e+02
6.265854002871448756e+03 1.778279410038922776e+02
6.959370163698437864e+03 3.162277660168379612e+02
