# Temperature (K), Pressure (bars)
2.338134755437257809e+03 9.999999999999999547e-07
2.362871742556186291e+03 1.778279410038922901e-06
2.387608729675139784e+03 3.162277660168379191e-06
2.412490023721371927e+03 5.623413251903491208e-06
2.441722156521636407e+03 1.000000000000000082e-05
2.474093493716120520e+03 1.778279410038922901e-05
2.507512144747947787e+03 3.162277660168379530e-05
2.541643527369440562e+03 5.623413251903490700e-05
2.576442735969617388e+03 1.000000000000000048e-04
2.611157043644402165e+03 1.778279410038922698e-04
2.643319935416475346e+03 3.162277660168379394e-04
2.669179241830605861e+03 5.623413251903490971e-04
2.686634662156785453e+03 1.000000000000000021e-03
2.700485453594358660e+03 1.778279410038922752e-03
2.720379277771213765e+03 3.162277660168379394e-03
2.753391209943702961e+03 5.623413251903490971e-03
2.802041400437560242e+03 1.000000000000000021e-02
2.866229883833408621e+03 1.778279410038922925e-02
2.947493239629302479e+03 3.162277660168379134e-02
3.055451922864653170e+03 5.623413251903491145e-02
3.194489152836205903e+03 1.000000000000000056e-01
3.356903798398045183e+03 1.778279410038922925e-01
3.542070915497737133e+03 3.162277660168379412e-01
3.757364228284526689e+03 5.623413251903490728e-01
4.009633538287074316e+03 1.000000000000000000e+00
4.309503558938627066e+03 1.778279410038922759e+00
4.645153964044863642e+03 3.162277660168379523e+00
5.072120858009693620e+03 5.623413251903491172e+00
5.655886332864768519e+03 1.000000000000000000e+01
6.528061052665320858e+03 1.778279410038922848e+01
7.853671473359527226e+03 3.162277660168379256e+01
9.613512536325675683e+03 5.623413251903490817e+01
1.171878728619915273e+04 1.000000000000000000e+02
1.426801969267495770e+04 1.778279410038922776e+02
1.730978747204500542e+04 3.162277660168379612e+02
