# Temperature (K), Pressure (bars)
1.133468189654800881e+03 3.162277660168379191e-06
1.176156986708037039e+03 5.623413251903491208e-06
1.219059874862148263e+03 1.000000000000000082e-05
1.264258524934339448e+03 1.778279410038922901e-05
1.313190118544830057e+03 3.162277660168379530e-05
1.365745891786029006e+03 5.623413251903490700e-05
1.423099999837306314e+03 1.000000000000000048e-04
1.487021067926576961e+03 1.778279410038922698e-04
1.556862135528853742e+03 3.162277660168379394e-04
1.636601038091946066e+03 5.623413251903490971e-04
1.736178192092942481e+03 1.000000000000000021e-03
1.846736596702539373e+03 1.778279410038922752e-03
1.970083577603499634e+03 3.162277660168379394e-03
2.123014483993448266e+03 5.623413251903490971e-03
2.287381181562235724e+03 1.000000000000000021e-02
2.446444098924119771e+03 1.778279410038922925e-02
2.604850698060354262e+03 3.162277660168379134e-02
2.765428045787551127e+03 5.623413251903491145e-02
2.930569039643120959e+03 1.000000000000000056e-01
3.102417945664466060e+03 1.778279410038922925e-01
3.282717434789120944e+03 3.162277660168379412e-01
3.473239833071178964e+03 5.623413251903490728e-01
3.677084850703881784e+03 1.000000000000000000e+00
3.899222608944145577e+03 1.778279410038922759e+00
4.146154814764166076e+03 3.162277660168379523e+00
4.426228818649036839e+03 5.623413251903491172e+00
4.751034727252163975e+03 1.000000000000000000e+01
5.137592978269170089e+03 1.778279410038922848e+01
5.612762266901232579e+03 3.162277660168379256e+01
6.219773541020771518e+03 5.623413251903490817e+01
7.032605113793078999e+03 1.000000000000000000e+02
8.176209945487160439e+03 1.778279410038922776e+02
9.785217628058326227e+03 3.162277660168379612e+02
