# Temperature (K), Pressure (bars)
7.770529936611278572e+02 5.623413251903490971e-04
8.193757661594735282e+02 1.000000000000000021e-03
8.616985398162935326e+02 1.778279410038922752e-03
9.037179065946298806e+02 3.162277660168379394e-03
9.456585839627207406e+02 5.623413251903490971e-03
9.881966763500151956e+02 1.000000000000000021e-02
1.032494588514937732e+03 1.778279410038922925e-02
1.080940464974529732e+03 3.162277660168379134e-02
1.137970141738065195e+03 5.623413251903491145e-02
1.208519841955213224e+03 1.000000000000000056e-01
1.300448263883976779e+03 1.778279410038922925e-01
1.420662859302788092e+03 3.162277660168379412e-01
1.595528155822624058e+03 5.623413251903490728e-01
1.843219655072919068e+03 1.000000000000000000e+00
2.123608061625825940e+03 1.778279410038922759e+00
2.403976571231217804e+03 3.162277660168379523e+00
2.680591556224083888e+03 5.623413251903491172e+00
2.950290163564212889e+03 1.000000000000000000e+01
3.217380519778211692e+03 1.778279410038922848e+01
3.490925908840764805e+03 3.162277660168379256e+01
3.777563468908080722e+03 5.623413251903490817e+01
4.084700504973911848e+03 1.000000000000000000e+02
4.416355314545027795e+03 1.778279410038922776e+02
4.788031522114415566e+03 3.162277660168379612e+02
