# Temperature (K), Pressure (bars)
8.943382736918155160e+02 5.623413251903490971e-04
9.325621240353174244e+02 1.000000000000000021e-03
9.707859753395647431e+02 1.778279410038922752e-03
1.011046561324447680e+03 3.162277660168379394e-03
1.053201946500366148e+03 5.623413251903490971e-03
1.096235546888696035e+03 1.000000000000000021e-02
1.141268776491585413e+03 1.778279410038922925e-02
1.188982569094993778e+03 3.162277660168379134e-02
1.245481351182986828e+03 5.623413251903491145e-02
1.308923303815392273e+03 1.000000000000000056e-01
1.413631749352219003e+03 1.778279410038922925e-01
1.613955727722337997e+03 3.162277660168379412e-01
1.873674192054637160e+03 5.623413251903490728e-01
2.143892945601723113e+03 1.000000000000000000e+00
2.415017181148411510e+03 1.778279410038922759e+00
2.677108225137124009e+03 3.162277660168379523e+00
2.930055238219805688e+03 5.623413251903491172e+00
3.179336264825036778e+03 1.000000000000000000e+01
3.432560882366224632e+03 1.778279410038922848e+01
3.699030321622362408e+03 3.162277660168379256e+01
3.984535652867907174e+03 5.623413251903490817e+01
4.295899426304684312e+03 1.000000000000000000e+02
4.636278071371175429e+03 1.778279410038922776e+02
5.023197889073374427e+03 3.162277660168379612e+02
