# Temperature (K), Pressure (bars)
1.062050115037402520e+03 3.162277660168379530e-05
1.103578233479725213e+03 5.623413251903490700e-05
1.145106354158262320e+03 1.000000000000000048e-04
1.189423577147958440e+03 1.778279410038922698e-04
1.237855188087366969e+03 3.162277660168379394e-04
1.290048751374783251e+03 5.623413251903490971e-04
1.346122250734477120e+03 1.000000000000000021e-03
1.409503596241645937e+03 1.778279410038922752e-03
1.479089133151619762e+03 3.162277660168379394e-03
1.557169115246543470e+03 5.623413251903490971e-03
1.651602059382787047e+03 1.000000000000000021e-02
1.755498559950159006e+03 1.778279410038922925e-02
1.861152734962716750e+03 3.162277660168379134e-02
1.989889999716605871e+03 5.623413251903491145e-02
2.168127672534214980e+03 1.000000000000000056e-01
2.374983884913193378e+03 1.778279410038922925e-01
2.576892993708911035e+03 3.162277660168379412e-01
2.771205515520381141e+03 5.623413251903490728e-01
2.964925595348428033e+03 1.000000000000000000e+00
3.162593500687354663e+03 1.778279410038922759e+00
3.367661769318818642e+03 3.162277660168379523e+00
3.583996201835501324e+03 5.623413251903491172e+00
3.816279319185503027e+03 1.000000000000000000e+01
4.069871451559899015e+03 1.778279410038922848e+01
4.352795697933064730e+03 3.162277660168379256e+01
4.671074580554027307e+03 5.623413251903490817e+01
5.033517913896373102e+03 1.000000000000000000e+02
5.444270060022331563e+03 1.778279410038922776e+02
5.932370544271390827e+03 3.162277660168379612e+02
