# Temperature (K), Pressure (bars)
9.736917260028698138e+02 3.162277660168379394e-04
1.029764918143675004e+03 5.623413251903490971e-04
1.085838111742414867e+03 1.000000000000000021e-03
1.140498188165741794e+03 1.778279410038922752e-03
1.194888124693048667e+03 3.162277660168379394e-03
1.250378502535024381e+03 5.623413251903490971e-03
1.308363449094292946e+03 1.000000000000000021e-02
1.371741105036436920e+03 1.778279410038922925e-02
1.447547701316263101e+03 3.162277660168379134e-02
1.554955995566686397e+03 5.623413251903491145e-02
1.700883309339749758e+03 1.000000000000000056e-01
1.888935364630934146e+03 1.778279410038922925e-01
2.125542555810169688e+03 3.162277660168379412e-01
2.375493515610450231e+03 5.623413251903490728e-01
2.610028620158085232e+03 1.000000000000000000e+00
2.834453594167945084e+03 1.778279410038922759e+00
3.055075691309760259e+03 3.162277660168379523e+00
3.278054385100628679e+03 5.623413251903491172e+00
3.509295595548329402e+03 1.000000000000000000e+01
3.754733138480434263e+03 1.778279410038922848e+01
4.022363570804976462e+03 3.162277660168379256e+01
4.317148795812947355e+03 5.623413251903490817e+01
4.646132276723545147e+03 1.000000000000000000e+02
5.012822500249010773e+03 1.778279410038922776e+02
5.437889925074672647e+03 3.162277660168379612e+02
