# Temperature (K), Pressure (bars)
8.843373516739530942e+02 3.162277660168379530e-05
9.274850091046463376e+02 5.623413251903490700e-05
9.706326654179856632e+02 1.000000000000000048e-04
1.013910069113461532e+03 1.778279410038922698e-04
1.058212940875713684e+03 3.162277660168379394e-04
1.101487570424146043e+03 5.623413251903490971e-04
1.140481671275288136e+03 1.000000000000000021e-03
1.173743967125205472e+03 1.778279410038922752e-03
1.204016520272601610e+03 3.162277660168379394e-03
1.235719853843440205e+03 5.623413251903490971e-03
1.272319843119093093e+03 1.000000000000000021e-02
1.315845694514046954e+03 1.778279410038922925e-02
1.364408828540270406e+03 3.162277660168379134e-02
1.409256705785171107e+03 5.623413251903491145e-02
1.471474211394918711e+03 1.000000000000000056e-01
1.606730042833873540e+03 1.778279410038922925e-01
1.828343635222503735e+03 3.162277660168379412e-01
2.095512145174278430e+03 5.623413251903490728e-01
2.364300150779971318e+03 1.000000000000000000e+00
2.617828097102335505e+03 1.778279410038922759e+00
2.859046393217865443e+03 3.162277660168379523e+00
3.094252915890683653e+03 5.623413251903491172e+00
3.331508527096895250e+03 1.000000000000000000e+01
3.578221078801978365e+03 1.778279410038922848e+01
3.843168470760745549e+03 3.162277660168379256e+01
4.131023888045128842e+03 5.623413251903490817e+01
4.448419249104964365e+03 1.000000000000000000e+02
4.798273371210590085e+03 1.778279410038922776e+02
5.199612346292619804e+03 3.162277660168379612e+02
