# Temperature (K), Pressure (bars)
1.099872160403315547e+03 3.162277660168379191e-06
1.170401836142688808e+03 5.623413251903491208e-06
1.241277014227866857e+03 1.000000000000000082e-05
1.328525265589947821e+03 1.778279410038922901e-05
1.465144041215752168e+03 3.162277660168379530e-05
1.595194178292202650e+03 5.623413251903490700e-05
1.680638880335265640e+03 1.000000000000000048e-04
1.750040528529617859e+03 1.778279410038922698e-04
1.809802013356184716e+03 3.162277660168379394e-04
1.857276647312109162e+03 5.623413251903490971e-04
1.898514243916908526e+03 1.000000000000000021e-03
1.936304954674105829e+03 1.778279410038922752e-03
1.972765557463363166e+03 3.162277660168379394e-03
2.010463338457662303e+03 5.623413251903490971e-03
2.051611237456659637e+03 1.000000000000000021e-02
2.098154423690314616e+03 1.778279410038922925e-02
2.154053884508879037e+03 3.162277660168379134e-02
2.221002801269938118e+03 5.623413251903491145e-02
2.309723323598947900e+03 1.000000000000000056e-01
2.446194579454517680e+03 1.778279410038922925e-01
2.624711017297132457e+03 3.162277660168379412e-01
2.812905247441654865e+03 5.623413251903490728e-01
3.002519798158255981e+03 1.000000000000000000e+00
3.199297017254840284e+03 1.778279410038922759e+00
3.405348236633259148e+03 3.162277660168379523e+00
3.623507688702577070e+03 5.623413251903491172e+00
3.858179913019753712e+03 1.000000000000000000e+01
4.114696867414533699e+03 1.778279410038922848e+01
4.399213430763604265e+03 3.162277660168379256e+01
4.719554989903928799e+03 5.623413251903490817e+01
5.090082553470298080e+03 1.000000000000000000e+02
5.519513593044866866e+03 1.778279410038922776e+02
6.025171578520929870e+03 3.162277660168379612e+02
