# Temperature (K), Pressure (bars)
9.215472609075731043e+02 1.000000000000000082e-05
9.637973574105235457e+02 1.778279410038922901e-05
1.006047454697657258e+03 3.162277660168379530e-05
1.049262767705701208e+03 5.623413251903490700e-05
1.095557636357721776e+03 1.000000000000000048e-04
1.145248141015966667e+03 1.778279410038922698e-04
1.197848522482604949e+03 3.162277660168379394e-04
1.253551674166434168e+03 5.623413251903490971e-04
1.313002571089538151e+03 1.000000000000000021e-03
1.382877257255648829e+03 1.778279410038922752e-03
1.480158391180656281e+03 3.162277660168379394e-03
1.616158120793811577e+03 5.623413251903490971e-03
1.797392749744297362e+03 1.000000000000000021e-02
2.013518407498390616e+03 1.778279410038922925e-02
2.226523335772668815e+03 3.162277660168379134e-02
2.420052450617699833e+03 5.623413251903491145e-02
2.602914358450709642e+03 1.000000000000000056e-01
2.780929207060261433e+03 1.778279410038922925e-01
2.958042042656713875e+03 3.162277660168379412e-01
3.137165993582068040e+03 5.623413251903490728e-01
3.321776303968818411e+03 1.000000000000000000e+00
3.516251002778245038e+03 1.778279410038922759e+00
3.725207499595833269e+03 3.162277660168379523e+00
3.953450927653391318e+03 5.623413251903491172e+00
4.206393132228537979e+03 1.000000000000000000e+01
4.490567821737174199e+03 1.778279410038922848e+01
4.814771894814925872e+03 3.162277660168379256e+01
5.194756154402441098e+03 5.623413251903490817e+01
5.642792974473466529e+03 1.000000000000000000e+02
6.181129568434868816e+03 1.778279410038922776e+02
6.843240354301354273e+03 3.162277660168379612e+02
