# Temperature (K), Pressure (bars)
1.901244828336981527e+03 1.778279410038922901e-05
1.910644351310449792e+03 3.162277660168379530e-05
1.920043878093480089e+03 5.623413251903490700e-05
1.936527456770285198e+03 1.000000000000000048e-04
1.960720011563790649e+03 1.778279410038922698e-04
1.992548153155432374e+03 3.162277660168379394e-04
2.032787607681320878e+03 5.623413251903490971e-04
2.077921223769124481e+03 1.000000000000000021e-03
2.123619360667834826e+03 1.778279410038922752e-03
2.167521247221274734e+03 3.162277660168379394e-03
2.207129643732896511e+03 5.623413251903490971e-03
2.241109705637574734e+03 1.000000000000000021e-02
2.270265158898786012e+03 1.778279410038922925e-02
2.296595977592480267e+03 3.162277660168379134e-02
2.325122763338636560e+03 5.623413251903491145e-02
2.361462439449052908e+03 1.000000000000000056e-01
2.416607010912359328e+03 1.778279410038922925e-01
2.483483806665693010e+03 3.162277660168379412e-01
2.586539663012655637e+03 5.623413251903490728e-01
2.770238532790253885e+03 1.000000000000000000e+00
2.985740677089218934e+03 1.778279410038922759e+00
3.194165319529170119e+03 3.162277660168379523e+00
3.412129440834138222e+03 5.623413251903491172e+00
3.644074790070775180e+03 1.000000000000000000e+01
3.893670547823076504e+03 1.778279410038922848e+01
4.167040013843748966e+03 3.162277660168379256e+01
4.470760987099944941e+03 5.623413251903490817e+01
4.812588036396901771e+03 1.000000000000000000e+02
5.196490811929619667e+03 1.778279410038922776e+02
5.645709537149153221e+03 3.162277660168379612e+02
