# Temperature (K), Pressure (bars)
1.183374831486302128e+03 9.999999999999999547e-07
1.233509811473641093e+03 1.778279410038922901e-06
1.283644791460979832e+03 3.162277660168379191e-06
1.335750229014921615e+03 5.623413251903491208e-06
1.390790516882878819e+03 1.000000000000000082e-05
1.450959561159797204e+03 1.778279410038922901e-05
1.517920619708182357e+03 3.162277660168379530e-05
1.592859693508644796e+03 5.623413251903490700e-05
1.676910284473572574e+03 1.000000000000000048e-04
1.768451929533414841e+03 1.778279410038922698e-04
1.867065903690290043e+03 3.162277660168379394e-04
1.980320350164840647e+03 5.623413251903490971e-04
2.116675125740186559e+03 1.000000000000000021e-03
2.269160609685796317e+03 1.778279410038922752e-03
2.425396096182068959e+03 3.162277660168379394e-03
2.582686095614893475e+03 5.623413251903490971e-03
2.743359627200482464e+03 1.000000000000000021e-02
2.911116133707416793e+03 1.778279410038922925e-02
3.092021165535510590e+03 3.162277660168379134e-02
3.294574591457092538e+03 5.623413251903491145e-02
3.487855080806128171e+03 1.000000000000000056e-01
3.713616052362920072e+03 1.778279410038922925e-01
3.970071115298651875e+03 3.162277660168379412e-01
4.294731324099851918e+03 5.623413251903490728e-01
4.753203725988119913e+03 1.000000000000000000e+00
5.484467755771316661e+03 1.778279410038922759e+00
6.601038635369507574e+03 3.162277660168379523e+00
8.148221426309669368e+03 5.623413251903491172e+00
9.860651914154797851e+03 1.000000000000000000e+01
1.000000000000000000e+04 1.778279410038922848e+01
1.000000000000000000e+04 3.162277660168379256e+01
1.000000000000000000e+04 5.623413251903490817e+01
1.000000000000000000e+04 1.000000000000000000e+02
1.000000000000000000e+04 1.778279410038922776e+02
1.000000000000000000e+04 3.162277660168379612e+02
