# Temperature (K), Pressure (bars)
9.414781486617881683e+02 5.623413251903490971e-04
9.847142765931406529e+02 1.000000000000000021e-03
1.027950404704766015e+03 1.778279410038922752e-03
1.070088440343696220e+03 3.162277660168379394e-03
1.113709097541278879e+03 5.623413251903490971e-03
1.159415930807310588e+03 1.000000000000000021e-02
1.207559284802731327e+03 1.778279410038922925e-02
1.258604741661984008e+03 3.162277660168379134e-02
1.317934667711713701e+03 5.623413251903491145e-02
1.402231041705756297e+03 1.000000000000000056e-01
1.518658591382112263e+03 1.778279410038922925e-01
1.664826615560686150e+03 3.162277660168379412e-01
1.830561428940132373e+03 5.623413251903490728e-01
2.036246957593554725e+03 1.000000000000000000e+00
2.308345011300583337e+03 1.778279410038922759e+00
2.593003035376197204e+03 3.162277660168379523e+00
2.854676778700734303e+03 5.623413251903491172e+00
3.110201727590965675e+03 1.000000000000000000e+01
3.367405857549834764e+03 1.778279410038922848e+01
3.635413924094597860e+03 3.162277660168379256e+01
3.920680982247474731e+03 5.623413251903490817e+01
4.230223744209219149e+03 1.000000000000000000e+02
4.567301817463689986e+03 1.778279410038922776e+02
4.949026782262235429e+03 3.162277660168379612e+02
