# Temperature (K), Pressure (bars)
8.551917024926701743e+02 1.000000000000000048e-04
9.080783581603242283e+02 1.778279410038922698e-04
9.609650149663477805e+02 3.162277660168379394e-04
1.012811889908893477e+03 5.623413251903490971e-04
1.064268607008866184e+03 1.000000000000000021e-03
1.117639061178628708e+03 1.778279410038922752e-03
1.175196203112463309e+03 3.162277660168379394e-03
1.239702994404307219e+03 5.623413251903490971e-03
1.314784195006870050e+03 1.000000000000000021e-02
1.406509822780165450e+03 1.778279410038922925e-02
1.528059556248634863e+03 3.162277660168379134e-02
1.712324905344309173e+03 5.623413251903491145e-02
1.961708455107139798e+03 1.000000000000000056e-01
2.217907945259464213e+03 1.778279410038922925e-01
2.449064789303394264e+03 3.162277660168379412e-01
2.663261261083632235e+03 5.623413251903490728e-01
2.867547430894295303e+03 1.000000000000000000e+00
3.069069718753773941e+03 1.778279410038922759e+00
3.274111853316341239e+03 3.162277660168379523e+00
3.488308476775603594e+03 5.623413251903491172e+00
3.716808885060326247e+03 1.000000000000000000e+01
3.964855963029584927e+03 1.778279410038922848e+01
4.240567447072787218e+03 3.162277660168379256e+01
4.548667669643110457e+03 5.623413251903490817e+01
4.897103228187761488e+03 1.000000000000000000e+02
5.289581645923599353e+03 1.778279410038922776e+02
5.751674415711875554e+03 3.162277660168379612e+02
