# Temperature (K), Pressure (bars)
1.100647251718914504e+03 1.000000000000000082e-05
1.161076717612703305e+03 1.778279410038922901e-05
1.221561984625929199e+03 3.162277660168379530e-05
1.289970315022521163e+03 5.623413251903490700e-05
1.358010365545170771e+03 1.000000000000000048e-04
1.424856796538214894e+03 1.778279410038922698e-04
1.491082273489049385e+03 3.162277660168379394e-04
1.560839105100341385e+03 5.623413251903490971e-04
1.647902374967745800e+03 1.000000000000000021e-03
1.744126437745226212e+03 1.778279410038922752e-03
1.829983196841564450e+03 3.162277660168379394e-03
1.903928046919610324e+03 5.623413251903490971e-03
1.977511253715320436e+03 1.000000000000000021e-02
2.058433049410165950e+03 1.778279410038922925e-02
2.157137269477299469e+03 3.162277660168379134e-02
2.293663349904093593e+03 5.623413251903491145e-02
2.461322300323599393e+03 1.000000000000000056e-01
2.634062067332208244e+03 1.778279410038922925e-01
2.806179561745816500e+03 3.162277660168379412e-01
2.983230413520195270e+03 5.623413251903490728e-01
3.168135569072537237e+03 1.000000000000000000e+00
3.362956347388108043e+03 1.778279410038922759e+00
3.569878184785685335e+03 3.162277660168379523e+00
3.792308722096517158e+03 5.623413251903491172e+00
4.034975598999072190e+03 1.000000000000000000e+01
4.303626687412224783e+03 1.778279410038922848e+01
4.605273211264027850e+03 3.162277660168379256e+01
4.949265866680856561e+03 5.623413251903490817e+01
5.352282408102420959e+03 1.000000000000000000e+02
5.826501670500972068e+03 1.778279410038922776e+02
6.394609344600985423e+03 3.162277660168379612e+02
