# Temperature (K), Pressure (bars)
9.103243058449889986e+02 3.162277660168379530e-05
9.584703792072576789e+02 5.623413251903490700e-05
1.006616454247519982e+03 1.000000000000000048e-04
1.053771974116513320e+03 1.778279410038922698e-04
1.101848506645855650e+03 3.162277660168379394e-04
1.152078933035884347e+03 5.623413251903490971e-04
1.204898424922705999e+03 1.000000000000000021e-03
1.260615485746611284e+03 1.778279410038922752e-03
1.320543982234702753e+03 3.162277660168379394e-03
1.390603518142681196e+03 5.623413251903490971e-03
1.476990602753465282e+03 1.000000000000000021e-02
1.584857138706557635e+03 1.778279410038922925e-02
1.713179376529509682e+03 3.162277660168379134e-02
1.871756533474852631e+03 5.623413251903491145e-02
2.077080345635777121e+03 1.000000000000000056e-01
2.302887587984374477e+03 1.778279410038922925e-01
2.517556768761304738e+03 3.162277660168379412e-01
2.721256323367097593e+03 5.623413251903490728e-01
2.920383059471890647e+03 1.000000000000000000e+00
3.120092092665113341e+03 1.778279410038922759e+00
3.325026467694040093e+03 3.162277660168379523e+00
3.540133416657934049e+03 5.623413251903491172e+00
3.770467750575937771e+03 1.000000000000000000e+01
4.021352059949727391e+03 1.778279410038922848e+01
4.300914047636438227e+03 3.162277660168379256e+01
4.614500944659975175e+03 5.623413251903490817e+01
4.970509274613590605e+03 1.000000000000000000e+02
5.372952163089521491e+03 1.778279410038922776e+02
5.848937933934640569e+03 3.162277660168379612e+02
