# Temperature (K), Pressure (bars)
1.436451154488058819e+03 5.623413251903491208e-06
1.464441390506372272e+03 1.000000000000000082e-05
1.492431630782640468e+03 1.778279410038922901e-05
1.529178788038144603e+03 3.162277660168379530e-05
1.570548146520337923e+03 5.623413251903490700e-05
1.613252010913016875e+03 1.000000000000000048e-04
1.656567162649767624e+03 1.778279410038922698e-04
1.700775605551699982e+03 3.162277660168379394e-04
1.744921901143521609e+03 5.623413251903490971e-04
1.789018095663541089e+03 1.000000000000000021e-03
1.836940538156641651e+03 1.778279410038922752e-03
1.888363231286756445e+03 3.162277660168379394e-03
1.941505474335833469e+03 5.623413251903490971e-03
1.998129515050841974e+03 1.000000000000000021e-02
2.060576532735402452e+03 1.778279410038922925e-02
2.132883285105023788e+03 3.162277660168379134e-02
2.219318128229757804e+03 5.623413251903491145e-02
2.344609113288992830e+03 1.000000000000000056e-01
2.520872710255779566e+03 1.778279410038922925e-01
2.708411051810735898e+03 3.162277660168379412e-01
2.889493402867973145e+03 5.623413251903490728e-01
3.076642385522342465e+03 1.000000000000000000e+00
3.272387422845914898e+03 1.778279410038922759e+00
3.478358584101787528e+03 3.162277660168379523e+00
3.697776786228153014e+03 5.623413251903491172e+00
3.935335270844088427e+03 1.000000000000000000e+01
4.196538629734338429e+03 1.778279410038922848e+01
4.487854177640734633e+03 3.162277660168379256e+01
4.817695416037634459e+03 5.623413251903490817e+01
5.201319694938360044e+03 1.000000000000000000e+02
5.649043692095682673e+03 1.778279410038922776e+02
6.180768424417114147e+03 3.162277660168379612e+02
