# Temperature (K), Pressure (bars)
2.214004528921556357e+03 9.999999999999999547e-07
2.233727910176577097e+03 1.778279410038922901e-06
2.253451291431597383e+03 3.162277660168379191e-06
2.277999878485237332e+03 5.623413251903491208e-06
2.306595017749956241e+03 1.000000000000000082e-05
2.337748650204621754e+03 1.778279410038922901e-05
2.372275756780599295e+03 3.162277660168379530e-05
2.410743531151210846e+03 5.623413251903490700e-05
2.453817297918919394e+03 1.000000000000000048e-04
2.501041491304113151e+03 1.778279410038922698e-04
2.550704998546989827e+03 3.162277660168379394e-04
2.601210063190496385e+03 5.623413251903490971e-04
2.650314230255281473e+03 1.000000000000000021e-03
2.695508745944950533e+03 1.778279410038922752e-03
2.734457308607961295e+03 3.162277660168379394e-03
2.766998259847896406e+03 5.623413251903490971e-03
2.795815239372374435e+03 1.000000000000000021e-02
2.829768761414558412e+03 1.778279410038922925e-02
2.872775734311877841e+03 3.162277660168379134e-02
2.939185354732137057e+03 5.623413251903491145e-02
3.053196468538335466e+03 1.000000000000000056e-01
3.201437591075456112e+03 1.778279410038922925e-01
3.366692543604252023e+03 3.162277660168379412e-01
3.553742641756621651e+03 5.623413251903490728e-01
3.766281387323695071e+03 1.000000000000000000e+00
4.007542050174804899e+03 1.778279410038922759e+00
4.282387077059685907e+03 3.162277660168379523e+00
4.600380009971738218e+03 5.623413251903491172e+00
4.968968277074961406e+03 1.000000000000000000e+01
5.425697374381059490e+03 1.778279410038922848e+01
6.018356704500710293e+03 3.162277660168379256e+01
6.835948477363993334e+03 5.623413251903490817e+01
8.027381604500756112e+03 1.000000000000000000e+02
9.699232162452561170e+03 1.778279410038922776e+02
1.175720082744426145e+04 3.162277660168379612e+02
