# Temperature (K), Pressure (bars)
1.206141241856689931e+03 3.162277660168379394e-04
1.259207612639772378e+03 5.623413251903490971e-04
1.312273985620446638e+03 1.000000000000000021e-03
1.364470868827928598e+03 1.778279410038922752e-03
1.419922162377165023e+03 3.162277660168379394e-03
1.476224033712086339e+03 5.623413251903490971e-03
1.539934471528838685e+03 1.000000000000000021e-02
1.624181952636420874e+03 1.778279410038922925e-02
1.708600405767690972e+03 3.162277660168379134e-02
1.779568754334402684e+03 5.623413251903491145e-02
1.852828319549970047e+03 1.000000000000000056e-01
1.939683781513915392e+03 1.778279410038922925e-01
2.046989551873510436e+03 3.162277660168379412e-01
2.181105304780752249e+03 5.623413251903490728e-01
2.368767151207667666e+03 1.000000000000000000e+00
2.613889075683503961e+03 1.778279410038922759e+00
2.864143269432458510e+03 3.162277660168379523e+00
3.100444710363093236e+03 5.623413251903491172e+00
3.339551213464940247e+03 1.000000000000000000e+01
3.588198512858031791e+03 1.778279410038922848e+01
3.853782514195658678e+03 3.162277660168379256e+01
4.142299100066588835e+03 5.623413251903490817e+01
4.460580011726480734e+03 1.000000000000000000e+02
4.811869615338036965e+03 1.778279410038922776e+02
5.214951087270213975e+03 3.162277660168379612e+02
