# Temperature (K), Pressure (bars)
1.007491410820406941e+03 1.000000000000000021e-03
1.036219643655709433e+03 1.778279410038922752e-03
1.064947873564936799e+03 3.162277660168379394e-03
1.087671536451209477e+03 5.623413251903490971e-03
1.106911620615406264e+03 1.000000000000000021e-02
1.126506144368257537e+03 1.778279410038922925e-02
1.148912538362530768e+03 3.162277660168379134e-02
1.177077366271400933e+03 5.623413251903491145e-02
1.213692177953923192e+03 1.000000000000000056e-01
1.261696143614281254e+03 1.778279410038922925e-01
1.323149203095350913e+03 3.162277660168379412e-01
1.400556519331829350e+03 5.623413251903490728e-01
1.502441027620528075e+03 1.000000000000000000e+00
1.630952162955895801e+03 1.778279410038922759e+00
1.797178012151651728e+03 3.162277660168379523e+00
2.035529659174264907e+03 5.623413251903491172e+00
2.335845997634503874e+03 1.000000000000000000e+01
2.647160264367069885e+03 1.778279410038922848e+01
2.955371958687482220e+03 3.162277660168379256e+01
3.264574700105363718e+03 5.623413251903490817e+01
3.580487701386537083e+03 1.000000000000000000e+02
3.907991527747828513e+03 1.778279410038922776e+02
4.261340001092862622e+03 3.162277660168379612e+02
