# Temperature (K), Pressure (bars)
9.970144932018737336e+02 3.162277660168379394e-04
1.052573820297152906e+03 5.623413251903490971e-04
1.108133149329138178e+03 1.000000000000000021e-03
1.162339620561194124e+03 1.778279410038922752e-03
1.216732891535001954e+03 3.162277660168379394e-03
1.272358791401671851e+03 5.623413251903490971e-03
1.330775493839212686e+03 1.000000000000000021e-02
1.395808915686481441e+03 1.778279410038922925e-02
1.473959174347676253e+03 3.162277660168379134e-02
1.590181534154043220e+03 5.623413251903491145e-02
1.783062692814571847e+03 1.000000000000000056e-01
2.037338061240375737e+03 1.778279410038922925e-01
2.292016411661985785e+03 3.162277660168379412e-01
2.524495030494968432e+03 5.623413251903490728e-01
2.743711004101000071e+03 1.000000000000000000e+00
2.956566668329838649e+03 1.778279410038922759e+00
3.169343830009015619e+03 3.162277660168379523e+00
3.387762103849795949e+03 5.623413251903491172e+00
3.617421544858098969e+03 1.000000000000000000e+01
3.863933700073770069e+03 1.778279410038922848e+01
4.135217469921947668e+03 3.162277660168379256e+01
4.436197190291022707e+03 5.623413251903490817e+01
4.774298896252731538e+03 1.000000000000000000e+02
5.153211112941997271e+03 1.778279410038922776e+02
5.595307744030149479e+03 3.162277660168379612e+02
