# Temperature (K), Pressure (bars)
9.844130136900961361e+02 1.000000000000000048e-04
1.039241215491906360e+03 1.778279410038922698e-04
1.094069419877559085e+03 3.162277660168379394e-04
1.148129180832773955e+03 5.623413251903490971e-04
1.201332684596148511e+03 1.000000000000000021e-03
1.255028190011014431e+03 1.778279410038922752e-03
1.313802665424816951e+03 3.162277660168379394e-03
1.386078505118251542e+03 5.623413251903490971e-03
1.467339304722106590e+03 1.000000000000000021e-02
1.552267412517497178e+03 1.778279410038922925e-02
1.647671385886840653e+03 3.162277660168379134e-02
1.743950192503811195e+03 5.623413251903491145e-02
1.834887370066254562e+03 1.000000000000000056e-01
1.939573463369944420e+03 1.778279410038922925e-01
2.063064555544479390e+03 3.162277660168379412e-01
2.228688240997908451e+03 5.623413251903490728e-01
2.464559096204787693e+03 1.000000000000000000e+00
2.716044837022044248e+03 1.778279410038922759e+00
2.947344037101580852e+03 3.162277660168379523e+00
3.177332154739359339e+03 5.623413251903491172e+00
3.412863097811916759e+03 1.000000000000000000e+01
3.659749643631230356e+03 1.778279410038922848e+01
3.925737381040110449e+03 3.162277660168379256e+01
4.216479137325171905e+03 5.623413251903490817e+01
4.538863842312802262e+03 1.000000000000000000e+02
4.896094351229661697e+03 1.778279410038922776e+02
5.307854754448806489e+03 3.162277660168379612e+02
