# Temperature (K), Pressure (bars)
1.124486839968603817e+03 9.999999999999999547e-07
1.124694662807376062e+03 1.778279410038922901e-06
1.124902485648421134e+03 3.162277660168379191e-06
1.132520635460847643e+03 5.623413251903491208e-06
1.147787955840866289e+03 1.000000000000000082e-05
1.169404390124817837e+03 1.778279410038922901e-05
1.197882973790861797e+03 3.162277660168379530e-05
1.232257572647364668e+03 5.623413251903490700e-05
1.271299869259724801e+03 1.000000000000000048e-04
1.314619834751676535e+03 1.778279410038922698e-04
1.362712867877653025e+03 3.162277660168379394e-04
1.418305688825141033e+03 5.623413251903490971e-04
1.482906233474627470e+03 1.000000000000000021e-03
1.555753180545177202e+03 1.778279410038922752e-03
1.638095837522237389e+03 3.162277660168379394e-03
1.732562458973110552e+03 5.623413251903490971e-03
1.838074038176478780e+03 1.000000000000000021e-02
1.944880860166359071e+03 1.778279410038922925e-02
2.067895146487580405e+03 3.162277660168379134e-02
2.233756914592464454e+03 5.623413251903491145e-02
2.419347570888734481e+03 1.000000000000000056e-01
2.599000121452534131e+03 1.778279410038922925e-01
2.776656065454628788e+03 3.162277660168379412e-01
2.956903238860410966e+03 5.623413251903490728e-01
3.143088110230006350e+03 1.000000000000000000e+00
3.337647750767547222e+03 1.778279410038922759e+00
3.543281638489962006e+03 3.162277660168379523e+00
3.763824185807193317e+03 5.623413251903491172e+00
4.004105375498294961e+03 1.000000000000000000e+01
4.269759849221368313e+03 1.778279410038922848e+01
4.567564805128028638e+03 3.162277660168379256e+01
4.906505422295509561e+03 5.623413251903490817e+01
5.302729231028526556e+03 1.000000000000000000e+02
5.767976095744759732e+03 1.778279410038922776e+02
6.323989406481958213e+03 3.162277660168379612e+02
