# Temperature (K), Pressure (bars)
2.088588174770201931e+03 1.778279410038922901e-06
2.097729251986113013e+03 3.162277660168379191e-06
2.106870341686201300e+03 5.623413251903491208e-06
2.119244467387811710e+03 1.000000000000000082e-05
2.134354839561940480e+03 1.778279410038922901e-05
2.155963747822252117e+03 3.162277660168379530e-05
2.187162409938780456e+03 5.623413251903490700e-05
2.226766707536932699e+03 1.000000000000000048e-04
2.274304628150828194e+03 1.778279410038922698e-04
2.329402598242283148e+03 3.162277660168379394e-04
2.388646413877825580e+03 5.623413251903490971e-04
2.448693030520760658e+03 1.000000000000000021e-03
2.507287848251900868e+03 1.778279410038922752e-03
2.562666175111104167e+03 3.162277660168379394e-03
2.614036162385275475e+03 5.623413251903490971e-03
2.660864508583999850e+03 1.000000000000000021e-02
2.704290978312095831e+03 1.778279410038922925e-02
2.752667875319727500e+03 3.162277660168379134e-02
2.835957925364121365e+03 5.623413251903491145e-02
2.967818671095954869e+03 1.000000000000000056e-01
3.120776759960983327e+03 1.778279410038922925e-01
3.284131163156092953e+03 3.162277660168379412e-01
3.467252735562212365e+03 5.623413251903490728e-01
3.672435146034506488e+03 1.000000000000000000e+00
3.901016602530526143e+03 1.778279410038922759e+00
4.156286038515845576e+03 3.162277660168379523e+00
4.445494456209671625e+03 5.623413251903491172e+00
4.780625157404973834e+03 1.000000000000000000e+01
5.176251273513697015e+03 1.778279410038922848e+01
5.666386138969478452e+03 3.162277660168379256e+01
6.301391191940760109e+03 5.623413251903490817e+01
7.170717945944300482e+03 1.000000000000000000e+02
8.409944708592214738e+03 1.778279410038922776e+02
1.000000000000000000e+04 3.162277660168379612e+02
