# Temperature (K), Pressure (bars)
9.065683785398729242e+02 5.623413251903490700e-05
9.547056054406846215e+02 1.000000000000000048e-04
1.002842831891902733e+03 1.778279410038922698e-04
1.051736281087057932e+03 3.162277660168379394e-04
1.102390842214643271e+03 5.623413251903490971e-04
1.151118939661576633e+03 1.000000000000000021e-03
1.192181354666835887e+03 1.778279410038922752e-03
1.225597182557199631e+03 3.162277660168379394e-03
1.256885514685819317e+03 5.623413251903490971e-03
1.290465628510293982e+03 1.000000000000000021e-02
1.329363846539261203e+03 1.778279410038922925e-02
1.376884986777136874e+03 3.162277660168379134e-02
1.424887288005381379e+03 5.623413251903491145e-02
1.480232539338055403e+03 1.000000000000000056e-01
1.582025128449565045e+03 1.778279410038922925e-01
1.768040573855482762e+03 3.162277660168379412e-01
2.029726599453188555e+03 5.623413251903490728e-01
2.306573335335206593e+03 1.000000000000000000e+00
2.565956776730206911e+03 1.778279410038922759e+00
2.813230814959699273e+03 3.162277660168379523e+00
3.053120141790724119e+03 5.623413251903491172e+00
3.293299579630358949e+03 1.000000000000000000e+01
3.541463961345782081e+03 1.778279410038922848e+01
3.806562151292337603e+03 3.162277660168379256e+01
4.093636870198058205e+03 5.623413251903490817e+01
4.409366537759240600e+03 1.000000000000000000e+02
4.756928637056380467e+03 1.778279410038922776e+02
5.154355177986511990e+03 3.162277660168379612e+02
