# Temperature (K), Pressure (bars)
9.211243410442440336e+02 3.162277660168379394e-04
9.778020176389013614e+02 5.623413251903490971e-04
1.034479695482390298e+03 1.000000000000000021e-03
1.088920602379683942e+03 1.778279410038922752e-03
1.142909438764364268e+03 3.162277660168379394e-03
1.199150061380356874e+03 5.623413251903490971e-03
1.260560027475280322e+03 1.000000000000000021e-02
1.331298414941803685e+03 1.778279410038922925e-02
1.417634600704020613e+03 3.162277660168379134e-02
1.527098205207928231e+03 5.623413251903491145e-02
1.685097287985741787e+03 1.000000000000000056e-01
1.911439104603529813e+03 1.778279410038922925e-01
2.170053608445161444e+03 3.162277660168379412e-01
2.418392839926529177e+03 5.623413251903490728e-01
2.650155561009834855e+03 1.000000000000000000e+00
2.871272586261544348e+03 1.778279410038922759e+00
3.088782059416544598e+03 3.162277660168379523e+00
3.309322734962694994e+03 5.623413251903491172e+00
3.538988779621236063e+03 1.000000000000000000e+01
3.783611851766742802e+03 1.778279410038922848e+01
4.051107550376804284e+03 3.162277660168379256e+01
4.346154798245617712e+03 5.623413251903490817e+01
4.675758408483488893e+03 1.000000000000000000e+02
5.043119585652695605e+03 1.778279410038922776e+02
5.469613801068280736e+03 3.162277660168379612e+02
