# Temperature (K), Pressure (bars)
7.583492241382041357e+02 3.162277660168379394e-04
7.982373854063170029e+02 5.623413251903490971e-04
8.381255475163893607e+02 1.000000000000000021e-03
8.775322135080630233e+02 1.778279410038922752e-03
9.175039371069333356e+02 3.162277660168379394e-03
9.585733106940044763e+02 5.623413251903490971e-03
1.001617875556410240e+03 1.000000000000000021e-02
1.049405291483185238e+03 1.778279410038922925e-02
1.105929230917118730e+03 3.162277660168379134e-02
1.178293194651485010e+03 5.623413251903491145e-02
1.271738593256371587e+03 1.000000000000000056e-01
1.404394910189093025e+03 1.778279410038922925e-01
1.601066747579694265e+03 3.162277660168379412e-01
1.847607915116591130e+03 5.623413251903490728e-01
2.115042827770951135e+03 1.000000000000000000e+00
2.387417397260693633e+03 1.778279410038922759e+00
2.652277958386439877e+03 3.162277660168379523e+00
2.906959747790776873e+03 5.623413251903491172e+00
3.157165687463443646e+03 1.000000000000000000e+01
3.410771692230368444e+03 1.778279410038922848e+01
3.677353038700714933e+03 3.162277660168379256e+01
3.962415441924805691e+03 5.623413251903490817e+01
4.272741749603318567e+03 1.000000000000000000e+02
4.611499513018962716e+03 1.778279410038922776e+02
4.995960072320791369e+03 3.162277660168379612e+02
