# Temperature (K), Pressure (bars)
9.155241375812299793e+02 5.623413251903490700e-05
9.653777497609728471e+02 1.000000000000000048e-04
1.015231363488546890e+03 1.778279410038922698e-04
1.061359761498195667e+03 3.162277660168379394e-04
1.105364472872662645e+03 5.623413251903490971e-04
1.149545526520357043e+03 1.000000000000000021e-03
1.196951337959292232e+03 1.778279410038922752e-03
1.252533208128774959e+03 3.162277660168379394e-03
1.324346147770028438e+03 5.623413251903490971e-03
1.408132983859485648e+03 1.000000000000000021e-02
1.496933948011570692e+03 1.778279410038922925e-02
1.596619441742615891e+03 3.162277660168379134e-02
1.696741820456594269e+03 5.623413251903491145e-02
1.796542036079902800e+03 1.000000000000000056e-01
1.910809149295075031e+03 1.778279410038922925e-01
2.061507502842854592e+03 3.162277660168379412e-01
2.272322490151739203e+03 5.623413251903490728e-01
2.513012341973203092e+03 1.000000000000000000e+00
2.747201841843753755e+03 1.778279410038922759e+00
2.975452031189976879e+03 3.162277660168379523e+00
3.203755040942352480e+03 5.623413251903491172e+00
3.437947552537576939e+03 1.000000000000000000e+01
3.684180886348453896e+03 1.778279410038922848e+01
3.950524180599583815e+03 3.162277660168379256e+01
4.242232991662535824e+03 5.623413251903490817e+01
4.566259258083931854e+03 1.000000000000000000e+02
4.926122188074258702e+03 1.778279410038922776e+02
5.341363130515926969e+03 3.162277660168379612e+02
