# Temperature (K), Pressure (bars)
1.023599913325546709e+03 1.000000000000000048e-04
1.058645687907632464e+03 1.778279410038922698e-04
1.093691461022898238e+03 3.162277660168379394e-04
1.125663686344379130e+03 5.623413251903490971e-04
1.154325578970163406e+03 1.000000000000000021e-03
1.179797414864089887e+03 1.778279410038922752e-03
1.203898084003891654e+03 3.162277660168379394e-03
1.230839821480012688e+03 5.623413251903490971e-03
1.269792592830555122e+03 1.000000000000000021e-02
1.327446162454818250e+03 1.778279410038922925e-02
1.392682013659702761e+03 3.162277660168379134e-02
1.468277086107805417e+03 5.623413251903491145e-02
1.565420315586302650e+03 1.000000000000000056e-01
1.665773182284586937e+03 1.778279410038922925e-01
1.763942465235678355e+03 3.162277660168379412e-01
1.901253998055134161e+03 5.623413251903490728e-01
2.121085804473678763e+03 1.000000000000000000e+00
2.395130524577839424e+03 1.778279410038922759e+00
2.665093577391421604e+03 3.162277660168379523e+00
2.920020452814418604e+03 5.623413251903491172e+00
3.170603275728406061e+03 1.000000000000000000e+01
3.424635422888930407e+03 1.778279410038922848e+01
3.691486491221947745e+03 3.162277660168379256e+01
3.977188604703093461e+03 5.623413251903490817e+01
4.288624080846542711e+03 1.000000000000000000e+02
4.629193406926345233e+03 1.778279410038922776e+02
5.015939570232072583e+03 3.162277660168379612e+02
