# Temperature (K), Pressure (bars)
8.602745039879539490e+02 3.162277660168379394e-04
9.100385817498947745e+02 5.623413251903490971e-04
9.598026606806287191e+02 1.000000000000000021e-03
1.009153329024677419e+03 1.778279410038922752e-03
1.058372663372520037e+03 3.162277660168379394e-03
1.108425800021283294e+03 5.623413251903490971e-03
1.161297029571824851e+03 1.000000000000000021e-02
1.219932287058177508e+03 1.778279410038922925e-02
1.290026357313827702e+03 3.162277660168379134e-02
1.376343310278104127e+03 5.623413251903491145e-02
1.498222457536866159e+03 1.000000000000000056e-01
1.690547745458341751e+03 1.778279410038922925e-01
1.943370551997142229e+03 3.162277660168379412e-01
2.209248748456070643e+03 5.623413251903490728e-01
2.464134784636891709e+03 1.000000000000000000e+00
2.705842468918392115e+03 1.778279410038922759e+00
2.938036413283650745e+03 3.162277660168379523e+00
3.167646589657141703e+03 5.623413251903491172e+00
3.401890728999781004e+03 1.000000000000000000e+01
3.647516547024817555e+03 1.778279410038922848e+01
3.912868105801082947e+03 3.162277660168379256e+01
4.202727025617247818e+03 5.623413251903490817e+01
4.523825736620069620e+03 1.000000000000000000e+02
4.879216822065464839e+03 1.778279410038922776e+02
5.288648021604353744e+03 3.162277660168379612e+02
