# Temperature (K), Pressure (bars)
2.439195311581100214e+03 9.999999999999999547e-07
2.455099424986743543e+03 1.778279410038922901e-06
2.471003538392448263e+03 3.162277660168379191e-06
2.494826573589801683e+03 5.623413251903491208e-06
2.522758784900847786e+03 1.000000000000000082e-05
2.552798256377187954e+03 1.778279410038922901e-05
2.584689221795499179e+03 3.162277660168379530e-05
2.617105507224484427e+03 5.623413251903490700e-05
2.649823723032333874e+03 1.000000000000000048e-04
2.682148113109349197e+03 1.778279410038922698e-04
2.712794176340794365e+03 3.162277660168379394e-04
2.738700884761161433e+03 5.623413251903490971e-04
2.754728035139229178e+03 1.000000000000000021e-03
2.760312334652371646e+03 1.778279410038922752e-03
2.765914988081186948e+03 3.162277660168379394e-03
2.786004418156469910e+03 5.623413251903490971e-03
2.825586779103111894e+03 1.000000000000000021e-02
2.884777105174990083e+03 1.778279410038922925e-02
2.959824061851770239e+03 3.162277660168379134e-02
3.058647762894789594e+03 5.623413251903491145e-02
3.196602066425302382e+03 1.000000000000000056e-01
3.360511188113062872e+03 1.778279410038922925e-01
3.542178897652471733e+03 3.162277660168379412e-01
3.752769535379709851e+03 5.623413251903490728e-01
4.000446288744710728e+03 1.000000000000000000e+00
4.296433252657579942e+03 1.778279410038922759e+00
4.627669854248351839e+03 3.162277660168379523e+00
5.046877826083327818e+03 5.623413251903491172e+00
5.615465208104641533e+03 1.000000000000000000e+01
6.457416030184905139e+03 1.778279410038922848e+01
7.740984223432669751e+03 3.162277660168379256e+01
9.471323287283192258e+03 5.623413251903490817e+01
1.155198126805969878e+04 1.000000000000000000e+02
1.406570095371096977e+04 1.778279410038922776e+02
1.706373335856746780e+04 3.162277660168379612e+02
