# Temperature (K), Pressure (bars)
1.034261512684293848e+03 1.778279410038922901e-06
1.075543446954811998e+03 3.162277660168379191e-06
1.116825383391862943e+03 5.623413251903491208e-06
1.159774581336677329e+03 1.000000000000000082e-05
1.206396138326444088e+03 1.778279410038922901e-05
1.256673662864547168e+03 3.162277660168379530e-05
1.309830505987763217e+03 5.623413251903490700e-05
1.366575688430684295e+03 1.000000000000000048e-04
1.428736052664493855e+03 1.778279410038922698e-04
1.498456134812018490e+03 3.162277660168379394e-04
1.578176889852149998e+03 5.623413251903490971e-04
1.674198133654575258e+03 1.000000000000000021e-03
1.789903527584576523e+03 1.778279410038922752e-03
1.930477691266516103e+03 3.162277660168379394e-03
2.099386117754567294e+03 5.623413251903490971e-03
2.275918657257482664e+03 1.000000000000000021e-02
2.445097734961560946e+03 1.778279410038922925e-02
2.611029855725759262e+03 3.162277660168379134e-02
2.777064384073521978e+03 5.623413251903491145e-02
2.945964060322947716e+03 1.000000000000000056e-01
3.120002202701201895e+03 1.778279410038922925e-01
3.301037109396458618e+03 3.162277660168379412e-01
3.491508854825646722e+03 5.623413251903490728e-01
3.695487531761722494e+03 1.000000000000000000e+00
3.918488938346893974e+03 1.778279410038922759e+00
4.167245629459324846e+03 3.162277660168379523e+00
4.450442177308508690e+03 5.623413251903491172e+00
4.780298592732031466e+03 1.000000000000000000e+01
5.174948333862989784e+03 1.778279410038922848e+01
5.663107949186274709e+03 3.162277660168379256e+01
6.292480577260084829e+03 5.623413251903490817e+01
7.144499002495773311e+03 1.000000000000000000e+02
8.355287855934417166e+03 1.778279410038922776e+02
1.000000000000000000e+04 3.162277660168379612e+02
