# Temperature (K), Pressure (bars)
1.028050841044495428e+03 1.000000000000000048e-04
1.073053910410326125e+03 1.778279410038922698e-04
1.118056980031741205e+03 3.162277660168379394e-04
1.155204345275714104e+03 5.623413251903490971e-04
1.185930364727737697e+03 1.000000000000000021e-03
1.213321288290672783e+03 1.778279410038922752e-03
1.238551679093036910e+03 3.162277660168379394e-03
1.262759299141592237e+03 5.623413251903490971e-03
1.290252712033553735e+03 1.000000000000000021e-02
1.338370849321389869e+03 1.778279410038922925e-02
1.409506297777701320e+03 3.162277660168379134e-02
1.500290767094887087e+03 5.623413251903491145e-02
1.614835457135354773e+03 1.000000000000000056e-01
1.732367252531962095e+03 1.778279410038922925e-01
1.851162867348169584e+03 3.162277660168379412e-01
1.984434284973273179e+03 5.623413251903490728e-01
2.171684446143435707e+03 1.000000000000000000e+00
2.437355200766360667e+03 1.778279410038922759e+00
2.713144916375029879e+03 3.162277660168379523e+00
2.964410568225553561e+03 5.623413251903491172e+00
3.212028894561257857e+03 1.000000000000000000e+01
3.464465462769979695e+03 1.778279410038922848e+01
3.730616204414602635e+03 3.162277660168379256e+01
4.016621233815475534e+03 5.623413251903490817e+01
4.329331661265448020e+03 1.000000000000000000e+02
4.671958045365647195e+03 1.778279410038922776e+02
5.062155979522490270e+03 3.162277660168379612e+02
