# Temperature (K), Pressure (bars)
9.255092068773003575e+02 5.623413251903490700e-05
9.794166643183348242e+02 1.000000000000000048e-04
1.033324121531233004e+03 1.778279410038922698e-04
1.080990060430327276e+03 3.162277660168379394e-04
1.119234697153671277e+03 5.623413251903490971e-04
1.151183902483081965e+03 1.000000000000000021e-03
1.182331630533781663e+03 1.778279410038922752e-03
1.213131100355795752e+03 3.162277660168379394e-03
1.244416195110130275e+03 5.623413251903490971e-03
1.278597472737656062e+03 1.000000000000000021e-02
1.314058766681190946e+03 1.778279410038922925e-02
1.351536442747201136e+03 3.162277660168379134e-02
1.390762092664918782e+03 5.623413251903491145e-02
1.449031717929598926e+03 1.000000000000000056e-01
1.555998336951611464e+03 1.778279410038922925e-01
1.709960193790831909e+03 3.162277660168379412e-01
1.921978880491788686e+03 5.623413251903490728e-01
2.193913595661450472e+03 1.000000000000000000e+00
2.471628188902895090e+03 1.778279410038922759e+00
2.729038800154963610e+03 3.162277660168379523e+00
2.976801760550536983e+03 5.623413251903491172e+00
3.222133439215159797e+03 1.000000000000000000e+01
3.473006490901925645e+03 1.778279410038922848e+01
3.738847489080512787e+03 3.162277660168379256e+01
4.024890255230050116e+03 5.623413251903490817e+01
4.337876539528499961e+03 1.000000000000000000e+02
4.681099394824842420e+03 1.778279410038922776e+02
5.072077036225357915e+03 3.162277660168379612e+02
