# Temperature (K), Pressure (bars)
2.107366558678108959e+03 9.999999999999999547e-07
2.146761086958864325e+03 1.778279410038922901e-06
2.186155615239619692e+03 3.162277660168379191e-06
2.228416922149663151e+03 5.623413251903491208e-06
2.272921505877392974e+03 1.000000000000000082e-05
2.318972164170776523e+03 1.778279410038922901e-05
2.364649216515593253e+03 3.162277660168379530e-05
2.407537301164156361e+03 5.623413251903490700e-05
2.446990277143367166e+03 1.000000000000000048e-04
2.483081511220740595e+03 1.778279410038922698e-04
2.516816418692457319e+03 3.162277660168379394e-04
2.550691706711304050e+03 5.623413251903490971e-04
2.587710168836467346e+03 1.000000000000000021e-03
2.631059530447666930e+03 1.778279410038922752e-03
2.683169462859863870e+03 3.162277660168379394e-03
2.746962804222803697e+03 5.623413251903490971e-03
2.821461612413344028e+03 1.000000000000000021e-02
2.909264875923661293e+03 1.778279410038922925e-02
3.023875912642078674e+03 3.162277660168379134e-02
3.169096282113362122e+03 5.623413251903491145e-02
3.345701197325807698e+03 1.000000000000000056e-01
3.534094154405167046e+03 1.778279410038922925e-01
3.753487982821587138e+03 3.162277660168379412e-01
4.013413553115157811e+03 5.623413251903490728e-01
4.311525198155568432e+03 1.000000000000000000e+00
4.695941463116732848e+03 1.778279410038922759e+00
5.235438234583126359e+03 3.162277660168379523e+00
6.058072729069644993e+03 5.623413251903491172e+00
7.327912876858039454e+03 1.000000000000000000e+01
9.010596707523625810e+03 1.778279410038922848e+01
1.000000000000000000e+04 3.162277660168379256e+01
1.000000000000000000e+04 5.623413251903490817e+01
1.000000000000000000e+04 1.000000000000000000e+02
1.000000000000000000e+04 1.778279410038922776e+02
1.000000000000000000e+04 3.162277660168379612e+02
