# Temperature (K), Pressure (bars)
1.132959292591890062e+03 1.000000000000000082e-05
1.159318603475462623e+03 1.778279410038922901e-05
1.191106751182438074e+03 3.162277660168379530e-05
1.228287967501779804e+03 5.623413251903490700e-05
1.269581231553913540e+03 1.000000000000000048e-04
1.314580849994256823e+03 1.778279410038922698e-04
1.363973245920972204e+03 3.162277660168379394e-04
1.419353303205444718e+03 5.623413251903490971e-04
1.481129557193347409e+03 1.000000000000000021e-03
1.549635691070779785e+03 1.778279410038922752e-03
1.628538089289580512e+03 3.162277660168379394e-03
1.722487565805152826e+03 5.623413251903490971e-03
1.832403489759067043e+03 1.000000000000000021e-02
1.978589767004868918e+03 1.778279410038922925e-02
2.168944678949206263e+03 3.162277660168379134e-02
2.361975973156497275e+03 5.623413251903491145e-02
2.538640059733523685e+03 1.000000000000000056e-01
2.711283124508986475e+03 1.778279410038922925e-01
2.885240898435712097e+03 3.162277660168379412e-01
3.064044541303495862e+03 5.623413251903490728e-01
3.250188484210099887e+03 1.000000000000000000e+00
3.445953880254858177e+03 1.778279410038922759e+00
3.654479956205535473e+03 3.162277660168379523e+00
3.880107252939862519e+03 5.623413251903491172e+00
4.128043485888378200e+03 1.000000000000000000e+01
4.404429939307950917e+03 1.778279410038922848e+01
4.716941483409386819e+03 3.162277660168379256e+01
5.076029579291067421e+03 5.623413251903490817e+01
5.499991344745572860e+03 1.000000000000000000e+02
6.004145308732560807e+03 1.778279410038922776e+02
6.615538541934208297e+03 3.162277660168379612e+02
