# Temperature (K), Pressure (bars)
1.037362525947282165e+03 5.623413251903490971e-04
1.084860022741674356e+03 1.000000000000000021e-03
1.132357517016273732e+03 1.778279410038922752e-03
1.167944024597302359e+03 3.162277660168379394e-03
1.194418659465822429e+03 5.623413251903490971e-03
1.217892134815001555e+03 1.000000000000000021e-02
1.241524310113596357e+03 1.778279410038922925e-02
1.268048523067129508e+03 3.162277660168379134e-02
1.299442086569094045e+03 5.623413251903491145e-02
1.338664861436425099e+03 1.000000000000000056e-01
1.386176050420126330e+03 1.778279410038922925e-01
1.445015183167978194e+03 3.162277660168379412e-01
1.526913577686313147e+03 5.623413251903490728e-01
1.641418706114074439e+03 1.000000000000000000e+00
1.793120755131565147e+03 1.778279410038922759e+00
2.009626754920538133e+03 3.162277660168379523e+00
2.298962772918740939e+03 5.623413251903491172e+00
2.605165797766667765e+03 1.000000000000000000e+01
2.898197542551325114e+03 1.778279410038922848e+01
3.190701095344094938e+03 3.162277660168379256e+01
3.487546114155717532e+03 5.623413251903490817e+01
3.796570157912274226e+03 1.000000000000000000e+02
4.122433282371768655e+03 1.778279410038922776e+02
4.480534619843568180e+03 3.162277660168379612e+02
