# Temperature (K), Pressure (bars)
2.163432963381775608e+03 9.999999999999999547e-07
2.184962778695043653e+03 1.778279410038922901e-06
2.206492594008311698e+03 3.162277660168379191e-06
2.243390971221756445e+03 5.623413251903491208e-06
2.289528008869227961e+03 1.000000000000000082e-05
2.338545676092427129e+03 1.778279410038922901e-05
2.389188782877130052e+03 3.162277660168379530e-05
2.439421582917795604e+03 5.623413251903490700e-05
2.487946309250201011e+03 1.000000000000000048e-04
2.533575317955082483e+03 1.778279410038922698e-04
2.575911390292542364e+03 3.162277660168379394e-04
2.615982595098822003e+03 5.623413251903490971e-04
2.656156472539242259e+03 1.000000000000000021e-03
2.700805820930574100e+03 1.778279410038922752e-03
2.753859115604832368e+03 3.162277660168379394e-03
2.818254466195935947e+03 5.623413251903490971e-03
2.889482658909651946e+03 1.000000000000000021e-02
2.967844444196656241e+03 1.778279410038922925e-02
3.075481090779283022e+03 3.162277660168379134e-02
3.225713227374046710e+03 5.623413251903491145e-02
3.402707936029249595e+03 1.000000000000000056e-01
3.603894437238177034e+03 1.778279410038922925e-01
3.842969060829101181e+03 3.162277660168379412e-01
4.117365942568943865e+03 5.623413251903490728e-01
4.462275077671397412e+03 1.000000000000000000e+00
4.941956129507720107e+03 1.778279410038922759e+00
5.685682202058978874e+03 3.162277660168379523e+00
6.867031882326558843e+03 5.623413251903491172e+00
8.467329282848060757e+03 1.000000000000000000e+01
1.000000000000000000e+04 1.778279410038922848e+01
1.000000000000000000e+04 3.162277660168379256e+01
1.000000000000000000e+04 5.623413251903490817e+01
1.000000000000000000e+04 1.000000000000000000e+02
1.000000000000000000e+04 1.778279410038922776e+02
1.000000000000000000e+04 3.162277660168379612e+02
