# Temperature (K), Pressure (bars)
1.473108415660533637e+03 1.000000000000000082e-05
1.506149697615472860e+03 1.778279410038922901e-05
1.539190981912631287e+03 3.162277660168379530e-05
1.574942388728156402e+03 5.623413251903490700e-05
1.614615264441224781e+03 1.000000000000000048e-04
1.655642235961834103e+03 1.778279410038922698e-04
1.697746976692873886e+03 3.162277660168379394e-04
1.739137179933647076e+03 5.623413251903490971e-04
1.778364887144672139e+03 1.000000000000000021e-03
1.820288971681639168e+03 1.778279410038922752e-03
1.865569788657877325e+03 3.162277660168379394e-03
1.912090616820640662e+03 5.623413251903490971e-03
1.960681965564058373e+03 1.000000000000000021e-02
2.012885604195104179e+03 1.778279410038922925e-02
2.071920058359083669e+03 3.162277660168379134e-02
2.141228381761530272e+03 5.623413251903491145e-02
2.229142480705437265e+03 1.000000000000000056e-01
2.366678372448791833e+03 1.778279410038922925e-01
2.558244282495845709e+03 3.162277660168379412e-01
2.758242750963622257e+03 5.623413251903490728e-01
2.951092692664632978e+03 1.000000000000000000e+00
3.149377626317424983e+03 1.778279410038922759e+00
3.356057838060899940e+03 3.162277660168379523e+00
3.573864936569052134e+03 5.623413251903491172e+00
3.807078568287235612e+03 1.000000000000000000e+01
4.061075847062423691e+03 1.778279410038922848e+01
4.343759608855480110e+03 3.162277660168379256e+01
4.661497061573161773e+03 5.623413251903490817e+01
5.023136438295381595e+03 1.000000000000000000e+02
5.433410935104919190e+03 1.778279410038922776e+02
5.920005061561885668e+03 3.162277660168379612e+02
