# Temperature (K), Pressure (bars)
1.570861674397926890e+03 5.623413251903491208e-06
1.578483836682588390e+03 1.000000000000000082e-05
1.595443800287874865e+03 1.778279410038922901e-05
1.621587896781994914e+03 3.162277660168379530e-05
1.653289890938563985e+03 5.623413251903490700e-05
1.689965747015945908e+03 1.000000000000000048e-04
1.731131486883699836e+03 1.778279410038922698e-04
1.772476318269772946e+03 3.162277660168379394e-04
1.814902995974972100e+03 5.623413251903490971e-04
1.859009665608239175e+03 1.000000000000000021e-03
1.903767288856258574e+03 1.778279410038922752e-03
1.950513413791191851e+03 3.162277660168379394e-03
1.999967319604497789e+03 5.623413251903490971e-03
2.053539576288535500e+03 1.000000000000000021e-02
2.111819600080878899e+03 1.778279410038922925e-02
2.178799073674706051e+03 3.162277660168379134e-02
2.255843873953886941e+03 5.623413251903491145e-02
2.360388140621525963e+03 1.000000000000000056e-01
2.514615524689643735e+03 1.778279410038922925e-01
2.692892336319200695e+03 3.162277660168379412e-01
2.871676877006671930e+03 5.623413251903490728e-01
3.056587168088033650e+03 1.000000000000000000e+00
3.250840641270961896e+03 1.778279410038922759e+00
3.456440318604104505e+03 3.162277660168379523e+00
3.675822341379223417e+03 5.623413251903491172e+00
3.912959338542141268e+03 1.000000000000000000e+01
4.173127939783238617e+03 1.778279410038922848e+01
4.462711102420325915e+03 3.162277660168379256e+01
4.789954951112144045e+03 5.623413251903490817e+01
5.169655980702734269e+03 1.000000000000000000e+02
5.612001466506532779e+03 1.778279410038922776e+02
6.135943385241072974e+03 3.162277660168379612e+02
