# Temperature (K), Pressure (bars)
9.890387478111694008e+02 3.162277660168379394e-03
1.029944265055129563e+03 5.623413251903490971e-03
1.070849782976867345e+03 1.000000000000000021e-02
1.111292456293685518e+03 1.778279410038922925e-02
1.152196537278927963e+03 3.162277660168379134e-02
1.195285842061179210e+03 5.623413251903491145e-02
1.242607114689876425e+03 1.000000000000000056e-01
1.296103406099158519e+03 1.778279410038922925e-01
1.361955310605484101e+03 3.162277660168379412e-01
1.456125743037070833e+03 5.623413251903490728e-01
1.590923775537462234e+03 1.000000000000000000e+00
1.767862272032150941e+03 1.778279410038922759e+00
2.002047176959000581e+03 3.162277660168379523e+00
2.291929301037044297e+03 5.623413251903491172e+00
2.594063172042007864e+03 1.000000000000000000e+01
2.887274390099241828e+03 1.778279410038922848e+01
3.180916296600243641e+03 3.162277660168379256e+01
3.478703353195363889e+03 5.623413251903490817e+01
3.788440383109295453e+03 1.000000000000000000e+02
4.115341613480236447e+03 1.778279410038922776e+02
4.473900649566158791e+03 3.162277660168379612e+02
