# Temperature (K), Pressure (bars)
9.820029856138568221e+02 1.000000000000000082e-05
1.032958092575065166e+03 1.778279410038922901e-05
1.083913200423380431e+03 3.162277660168379530e-05
1.131788521793268956e+03 5.623413251903490700e-05
1.176953706564470394e+03 1.000000000000000048e-04
1.223705028659740947e+03 1.778279410038922698e-04
1.275079188277055891e+03 3.162277660168379394e-04
1.335157379935942117e+03 5.623413251903490971e-04
1.410141611096898259e+03 1.000000000000000021e-03
1.499049597197459889e+03 1.778279410038922752e-03
1.599768537195585168e+03 3.162277660168379394e-03
1.713566099284294069e+03 5.623413251903490971e-03
1.832738113559018302e+03 1.000000000000000021e-02
1.946320074705068009e+03 1.778279410038922925e-02
2.083732229646028372e+03 3.162277660168379134e-02
2.271205218297856391e+03 5.623413251903491145e-02
2.465983960072303944e+03 1.000000000000000056e-01
2.644636977209026099e+03 1.778279410038922925e-01
2.822269897666581073e+03 3.162277660168379412e-01
3.003189992781918136e+03 5.623413251903490728e-01
3.189744639155100231e+03 1.000000000000000000e+00
3.384233751018991370e+03 1.778279410038922759e+00
3.590141293071693326e+03 3.162277660168379523e+00
3.811967648258612826e+03 5.623413251903491172e+00
4.054768572077265162e+03 1.000000000000000000e+01
4.324331144937278623e+03 1.778279410038922848e+01
4.627726267874366386e+03 3.162277660168379256e+01
4.974481833024687148e+03 5.623413251903490817e+01
5.381709382000217374e+03 1.000000000000000000e+02
5.862043442545395919e+03 1.778279410038922776e+02
6.439495139049858153e+03 3.162277660168379612e+02
