# Temperature (K), Pressure (bars)
2.208816404493774371e+03 9.999999999999999547e-07
2.231695757770475666e+03 1.778279410038922901e-06
2.254575111047177415e+03 3.162277660168379191e-06
2.277243950985096490e+03 5.623413251903491208e-06
2.299332725299742833e+03 1.000000000000000082e-05
2.317836622859673753e+03 1.778279410038922901e-05
2.328157951320581560e+03 3.162277660168379530e-05
2.331724916917658902e+03 5.623413251903490700e-05
2.337839143348658126e+03 1.000000000000000048e-04
2.354562728801125104e+03 1.778279410038922698e-04
2.383514112456320618e+03 3.162277660168379394e-04
2.423289847299679423e+03 5.623413251903490971e-04
2.472798823939619069e+03 1.000000000000000021e-03
2.532022034983750927e+03 1.778279410038922752e-03
2.601981016776946944e+03 3.162277660168379394e-03
2.682610096680310562e+03 5.623413251903490971e-03
2.773499676903129966e+03 1.000000000000000021e-02
2.879065288973427414e+03 1.778279410038922925e-02
3.004089395491313098e+03 3.162277660168379134e-02
3.149175705248005215e+03 5.623413251903491145e-02
3.318132475618233002e+03 1.000000000000000056e-01
3.503345703457974651e+03 1.778279410038922925e-01
3.713513615743213450e+03 3.162277660168379412e-01
3.959691927289934938e+03 5.623413251903490728e-01
4.243313916873456947e+03 1.000000000000000000e+00
4.594803862789454797e+03 1.778279410038922759e+00
5.070129243223384037e+03 3.162277660168379523e+00
5.784890157635549258e+03 5.623413251903491172e+00
6.923564857969749937e+03 1.000000000000000000e+01
8.511392571131993463e+03 1.778279410038922848e+01
1.000000000000000000e+04 3.162277660168379256e+01
1.000000000000000000e+04 5.623413251903490817e+01
1.000000000000000000e+04 1.000000000000000000e+02
1.000000000000000000e+04 1.778279410038922776e+02
1.000000000000000000e+04 3.162277660168379612e+02
