# Temperature (K), Pressure (bars)
9.808007828061450937e+02 3.162277660168379394e-04
1.037811607083643366e+03 5.623413251903490971e-04
1.094822431503961297e+03 1.000000000000000021e-03
1.143429427241345593e+03 1.778279410038922752e-03
1.180640869065269726e+03 3.162277660168379394e-03
1.209647833244172716e+03 5.623413251903490971e-03
1.235286643610945475e+03 1.000000000000000021e-02
1.262103426032070274e+03 1.778279410038922925e-02
1.293723947873618272e+03 3.162277660168379134e-02
1.330597158413002035e+03 5.623413251903491145e-02
1.373507581771634932e+03 1.000000000000000056e-01
1.421831878490781719e+03 1.778279410038922925e-01
1.480229808537450936e+03 3.162277660168379412e-01
1.570028255994661777e+03 5.623413251903490728e-01
1.691184145478886876e+03 1.000000000000000000e+00
1.864924208524060077e+03 1.778279410038922759e+00
2.125860980675026894e+03 3.162277660168379523e+00
2.423530392737253351e+03 5.623413251903491172e+00
2.712671650083303120e+03 1.000000000000000000e+01
2.997752148497000235e+03 1.778279410038922848e+01
3.283861087982012123e+03 3.162277660168379256e+01
3.576836319098154036e+03 5.623413251903490817e+01
3.884639759580952159e+03 1.000000000000000000e+02
4.212052444196692704e+03 1.778279410038922776e+02
4.573813518802387080e+03 3.162277660168379612e+02
