# Temperature (K), Pressure (bars)
1.019858605421560242e+03 9.999999999999999547e-07
1.041580976875063243e+03 1.778279410038922901e-06
1.063303348330296330e+03 3.162277660168379191e-06
1.090949822906483860e+03 5.623413251903491208e-06
1.125043837281312335e+03 1.000000000000000082e-05
1.163983996215969910e+03 1.778279410038922901e-05
1.207993478427008085e+03 3.162277660168379530e-05
1.256587280304158867e+03 5.623413251903490700e-05
1.308627438110401727e+03 1.000000000000000048e-04
1.364391362815527600e+03 1.778279410038922698e-04
1.425697966578650039e+03 3.162277660168379394e-04
1.493623186320755394e+03 5.623413251903490971e-04
1.570884801844148569e+03 1.000000000000000021e-03
1.661793056254623025e+03 1.778279410038922752e-03
1.773305018255096229e+03 3.162277660168379394e-03
1.922085782541698563e+03 5.623413251903490971e-03
2.104217463920214868e+03 1.000000000000000021e-02
2.287894064517591687e+03 1.778279410038922925e-02
2.460325003875614584e+03 3.162277660168379134e-02
2.628003994197514658e+03 5.623413251903491145e-02
2.795239013190192964e+03 1.000000000000000056e-01
2.965160491586014814e+03 1.778279410038922925e-01
3.140158030197359949e+03 3.162277660168379412e-01
3.322254356224631465e+03 5.623413251903490728e-01
3.514149849214372807e+03 1.000000000000000000e+00
3.719892225332370799e+03 1.778279410038922759e+00
3.944538352377111551e+03 3.162277660168379523e+00
4.193999269676243784e+03 5.623413251903491172e+00
4.475573086461550702e+03 1.000000000000000000e+01
4.799176545699576309e+03 1.778279410038922848e+01
5.181231024837199584e+03 3.162277660168379256e+01
5.639687372496131502e+03 5.623413251903490817e+01
6.204851115372486674e+03 1.000000000000000000e+02
6.924935134776118502e+03 1.778279410038922776e+02
7.878453766164291665e+03 3.162277660168379612e+02
