# Temperature (K), Pressure (bars)
2.027347226206038158e+03 9.999999999999999547e-07
2.046652847270818484e+03 1.778279410038922901e-06
2.066829958974542023e+03 3.162277660168379191e-06
2.092062495357762145e+03 5.623413251903491208e-06
2.124725216704877312e+03 1.000000000000000082e-05
2.163022905444935077e+03 1.778279410038922901e-05
2.204476604678705826e+03 3.162277660168379530e-05
2.246571001439572683e+03 5.623413251903490700e-05
2.287293250211873328e+03 1.000000000000000048e-04
2.325594597678827995e+03 1.778279410038922698e-04
2.360508666827417983e+03 3.162277660168379394e-04
2.392287700357175254e+03 5.623413251903490971e-04
2.422361696106731870e+03 1.000000000000000021e-03
2.452624455602119269e+03 1.778279410038922752e-03
2.485153254622967324e+03 3.162277660168379394e-03
2.523242217476064980e+03 5.623413251903490971e-03
2.569240995033723721e+03 1.000000000000000021e-02
2.627610137430296163e+03 1.778279410038922925e-02
2.714477834880425689e+03 3.162277660168379134e-02
2.835808875660276499e+03 5.623413251903491145e-02
2.976961117941988960e+03 1.000000000000000056e-01
3.132276159020264004e+03 1.778279410038922925e-01
3.305889854938622193e+03 3.162277660168379412e-01
3.498583961578435265e+03 5.623413251903490728e-01
3.710459770879727330e+03 1.000000000000000000e+00
3.943668314672254382e+03 1.778279410038922759e+00
4.203814684660821513e+03 3.162277660168379523e+00
4.500111183299350159e+03 5.623413251903491172e+00
4.841848896371801857e+03 1.000000000000000000e+01
5.255535469297984491e+03 1.778279410038922848e+01
5.775079567304996999e+03 3.162277660168379256e+01
6.460516617926673462e+03 5.623413251903490817e+01
7.421396132961456715e+03 1.000000000000000000e+02
8.803429989620532069e+03 1.778279410038922776e+02
1.062408426039567894e+04 3.162277660168379612e+02
