# Temperature (K), Pressure (bars)
1.262474134418515860e+03 9.999999999999999547e-07
1.294800861714732719e+03 1.778279410038922901e-06
1.327127589013895658e+03 3.162277660168379191e-06
1.362421785036478241e+03 5.623413251903491208e-06
1.401534846378344355e+03 1.000000000000000082e-05
1.447961237294271086e+03 1.778279410038922901e-05
1.510482607048727004e+03 3.162277660168379530e-05
1.582083669827718040e+03 5.623413251903490700e-05
1.650149955159414731e+03 1.000000000000000048e-04
1.715492291786961687e+03 1.778279410038922698e-04
1.782079793646302505e+03 3.162277660168379394e-04
1.852723951555888561e+03 5.623413251903490971e-04
1.928820001375673201e+03 1.000000000000000021e-03
2.014682389487882574e+03 1.778279410038922752e-03
2.122582714682135702e+03 3.162277660168379394e-03
2.254019059328194089e+03 5.623413251903490971e-03
2.395068886214454324e+03 1.000000000000000021e-02
2.538938878802367526e+03 1.778279410038922925e-02
2.687523667787631894e+03 3.162277660168379134e-02
2.842794016179773280e+03 5.623413251903491145e-02
3.006919018983287060e+03 1.000000000000000056e-01
3.181785309929839059e+03 1.778279410038922925e-01
3.368367702565115906e+03 3.162277660168379412e-01
3.567827165765843802e+03 5.623413251903490728e-01
3.783611541080458665e+03 1.000000000000000000e+00
4.021834770062805546e+03 1.778279410038922759e+00
4.290978845628796989e+03 3.162277660168379523e+00
4.602873121095725764e+03 5.623413251903491172e+00
4.972405850793669742e+03 1.000000000000000000e+01
5.431265087605629560e+03 1.778279410038922848e+01
6.029322691229034717e+03 3.162277660168379256e+01
6.859378887659209795e+03 5.623413251903490817e+01
8.070177102625234511e+03 1.000000000000000000e+02
9.759842663064266162e+03 1.778279410038922776e+02
1.183311545837705853e+04 3.162277660168379612e+02
