# Temperature (K), Pressure (bars)
2.065749315340189696e+03 9.999999999999999547e-07
2.089421199619876461e+03 1.778279410038922901e-06
2.113093083899563680e+03 3.162277660168379191e-06
2.141694467637006710e+03 5.623413251903491208e-06
2.176180660357246779e+03 1.000000000000000082e-05
2.214424321017781494e+03 1.778279410038922901e-05
2.254819727641867757e+03 3.162277660168379530e-05
2.296230576195770482e+03 5.623413251903490700e-05
2.336545489541341340e+03 1.000000000000000048e-04
2.373598306199022318e+03 1.778279410038922698e-04
2.406895711255296646e+03 3.162277660168379394e-04
2.437441388678807925e+03 5.623413251903490971e-04
2.466780646708559289e+03 1.000000000000000021e-03
2.496695948752938875e+03 1.778279410038922752e-03
2.530179808612354464e+03 3.162277660168379394e-03
2.569590139132704735e+03 5.623413251903490971e-03
2.619619116442691848e+03 1.000000000000000021e-02
2.678915780345305393e+03 1.778279410038922925e-02
2.759573509253099928e+03 3.162277660168379134e-02
2.881853883056555787e+03 5.623413251903491145e-02
3.027665221923094578e+03 1.000000000000000056e-01
3.184238508966938753e+03 1.778279410038922925e-01
3.360495975468868437e+03 3.162277660168379412e-01
3.557787168933329667e+03 5.623413251903490728e-01
3.776745776658107388e+03 1.000000000000000000e+00
4.020153384154001742e+03 1.778279410038922759e+00
4.294876044021930284e+03 3.162277660168379523e+00
4.612573486579040036e+03 5.623413251903491172e+00
4.984671795311121969e+03 1.000000000000000000e+01
5.447276506185571634e+03 1.778279410038922848e+01
6.050503709991719916e+03 3.162277660168379256e+01
6.887918500388173925e+03 5.623413251903490817e+01
8.112713680950345406e+03 1.000000000000000000e+02
9.818283593182641198e+03 1.778279410038922776e+02
1.190569980169455630e+04 3.162277660168379612e+02
