# Temperature (K), Pressure (bars)
1.825676400478630740e+03 9.999999999999999547e-07
1.856360942076971696e+03 1.778279410038922901e-06
1.887045483675312653e+03 3.162277660168379191e-06
1.922784924184816418e+03 5.623413251903491208e-06
1.962560841821035638e+03 1.000000000000000082e-05
2.005951105431460064e+03 1.778279410038922901e-05
2.052703500318560145e+03 3.162277660168379530e-05
2.101356875628855960e+03 5.623413251903490700e-05
2.152024903602883114e+03 1.000000000000000048e-04
2.205374382196389433e+03 1.778279410038922698e-04
2.262623590858391708e+03 3.162277660168379394e-04
2.325556272005752362e+03 5.623413251903490971e-04
2.396684574485203939e+03 1.000000000000000021e-03
2.481027363613234684e+03 1.778279410038922752e-03
2.581034141848652780e+03 3.162277660168379394e-03
2.694190260726374618e+03 5.623413251903490971e-03
2.819143381376323305e+03 1.000000000000000021e-02
2.957215267153517743e+03 1.778279410038922925e-02
3.111205495473310748e+03 3.162277660168379134e-02
3.287322959705778430e+03 5.623413251903491145e-02
3.478693466920507035e+03 1.000000000000000056e-01
3.701084791154057712e+03 1.778279410038922925e-01
3.958604468489273586e+03 3.162277660168379412e-01
4.275700200345309895e+03 5.623413251903490728e-01
4.718364068609360402e+03 1.000000000000000000e+00
5.411479552076663822e+03 1.778279410038922759e+00
6.461372663113678755e+03 3.162277660168379523e+00
7.962116017274476690e+03 5.623413251903491172e+00
9.675907005032344387e+03 1.000000000000000000e+01
1.000000000000000000e+04 1.778279410038922848e+01
1.000000000000000000e+04 3.162277660168379256e+01
1.000000000000000000e+04 5.623413251903490817e+01
1.000000000000000000e+04 1.000000000000000000e+02
1.000000000000000000e+04 1.778279410038922776e+02
1.000000000000000000e+04 3.162277660168379612e+02
