# Temperature (K), Pressure (bars)
2.236085849616796168e+03 9.999999999999999547e-07
2.249683609446941318e+03 1.778279410038922901e-06
2.263281369277087833e+03 3.162277660168379191e-06
2.284201138187918787e+03 5.623413251903491208e-06
2.309711541976308126e+03 1.000000000000000082e-05
2.336779040459673070e+03 1.778279410038922901e-05
2.364927344958435697e+03 3.162277660168379530e-05
2.393526652884606847e+03 5.623413251903490700e-05
2.422255012580438233e+03 1.000000000000000048e-04
2.450973526846733421e+03 1.778279410038922698e-04
2.479032525279654237e+03 3.162277660168379394e-04
2.505233150298864530e+03 5.623413251903490971e-04
2.528866926995669928e+03 1.000000000000000021e-03
2.550696983081911640e+03 1.778279410038922752e-03
2.572968206889916928e+03 3.162277660168379394e-03
2.598553994894873540e+03 5.623413251903490971e-03
2.629371177410514974e+03 1.000000000000000021e-02
2.668535340961073416e+03 1.778279410038922925e-02
2.718698202188243158e+03 3.162277660168379134e-02
2.800593680262742510e+03 5.623413251903491145e-02
2.930435588138328058e+03 1.000000000000000056e-01
3.081803115283264106e+03 1.778279410038922925e-01
3.240845767880160565e+03 3.162277660168379412e-01
3.417592900894499053e+03 5.623413251903490728e-01
3.615187938885497715e+03 1.000000000000000000e+00
3.835443486987363030e+03 1.778279410038922759e+00
4.080768359209396749e+03 3.162277660168379523e+00
4.356558246145506018e+03 5.623413251903491172e+00
4.672252158688858799e+03 1.000000000000000000e+01
5.039584729226286981e+03 1.778279410038922848e+01
5.484388267125450511e+03 3.162277660168379256e+01
6.041938366477427735e+03 5.623413251903490817e+01
6.773045846920631448e+03 1.000000000000000000e+02
7.780429047840415478e+03 1.778279410038922776e+02
9.199097608896892780e+03 3.162277660168379612e+02
