# Temperature (K), Pressure (bars)
1.960542244209358842e+03 1.778279410038922901e-05
1.966333884050891584e+03 3.162277660168379530e-05
1.972125527076792423e+03 5.623413251903490700e-05
1.985403876843305170e+03 1.000000000000000048e-04
2.008888745196024729e+03 1.778279410038922698e-04
2.041742755403112369e+03 3.162277660168379394e-04
2.081806191815180227e+03 5.623413251903490971e-04
2.127476835466853572e+03 1.000000000000000021e-03
2.176719016850493972e+03 1.778279410038922752e-03
2.225400106000193318e+03 3.162277660168379394e-03
2.270440365424632546e+03 5.623413251903490971e-03
2.311095385309643916e+03 1.000000000000000021e-02
2.346675788705733794e+03 1.778279410038922925e-02
2.380090007335709743e+03 3.162277660168379134e-02
2.415930983427547744e+03 5.623413251903491145e-02
2.463531772504882156e+03 1.000000000000000056e-01
2.521901686922808040e+03 1.778279410038922925e-01
2.615381105242044669e+03 3.162277660168379412e-01
2.779500732836777388e+03 5.623413251903490728e-01
2.973256963360973714e+03 1.000000000000000000e+00
3.164782349273961700e+03 1.778279410038922759e+00
3.367667297504837734e+03 3.162277660168379523e+00
3.585466857229465404e+03 5.623413251903491172e+00
3.820646534609125865e+03 1.000000000000000000e+01
4.077022384415729448e+03 1.778279410038922848e+01
4.361215712479678587e+03 3.162277660168379256e+01
4.680711073696077619e+03 5.623413251903490817e+01
5.044662170614014940e+03 1.000000000000000000e+02
5.457320951287763819e+03 1.778279410038922776e+02
5.947853806591254397e+03 3.162277660168379612e+02
