# Temperature (K), Pressure (bars)
8.803355918782406206e+02 3.162277660168379530e-05
9.274671475919153636e+02 5.623413251903490700e-05
9.745987023612353823e+02 1.000000000000000048e-04
1.022234610219762203e+03 1.778279410038922698e-04
1.073689241011613376e+03 3.162277660168379394e-04
1.127981340589640922e+03 5.623413251903490971e-04
1.179244442847497112e+03 1.000000000000000021e-03
1.220839168753887861e+03 1.778279410038922752e-03
1.254650955388036209e+03 3.162277660168379394e-03
1.288021447060253649e+03 5.623413251903490971e-03
1.325226314745296577e+03 1.000000000000000021e-02
1.370583890569147570e+03 1.778279410038922925e-02
1.419406580129895247e+03 3.162277660168379134e-02
1.472415629424943290e+03 5.623413251903491145e-02
1.585699999839944667e+03 1.000000000000000056e-01
1.799003746093380414e+03 1.778279410038922925e-01
2.059535898749250919e+03 3.162277660168379412e-01
2.316564855538717893e+03 5.623413251903490728e-01
2.561345563780280827e+03 1.000000000000000000e+00
2.793266234535694366e+03 1.778279410038922759e+00
3.017808097339922824e+03 3.162277660168379523e+00
3.242317680019686122e+03 5.623413251903491172e+00
3.473882580664175748e+03 1.000000000000000000e+01
3.718900747372388196e+03 1.778279410038922848e+01
3.985658802204739004e+03 3.162277660168379256e+01
4.278768297427960533e+03 5.623413251903490817e+01
4.605063779974353565e+03 1.000000000000000000e+02
4.967972023026120951e+03 1.778279410038922776e+02
5.387330284552566809e+03 3.162277660168379612e+02
