# Temperature (K), Pressure (bars)
8.180654459140731660e+02 5.623413251903490971e-04
8.613363388873423219e+02 1.000000000000000021e-03
9.046072330492745550e+02 1.778279410038922752e-03
9.467200778636658924e+02 3.162277660168379394e-03
9.890420881529884127e+02 5.623413251903490971e-03
1.032399165493077817e+03 1.000000000000000021e-02
1.077116754755821148e+03 1.778279410038922925e-02
1.125989161358804495e+03 3.162277660168379134e-02
1.182830197644994087e+03 5.623413251903491145e-02
1.254540696132416087e+03 1.000000000000000056e-01
1.346448771720714603e+03 1.778279410038922925e-01
1.485377775397417054e+03 3.162277660168379412e-01
1.700274980723858562e+03 5.623413251903490728e-01
1.963521256611481931e+03 1.000000000000000000e+00
2.239644256232053067e+03 1.778279410038922759e+00
2.515531319523492584e+03 3.162277660168379523e+00
2.783110149439515681e+03 5.623413251903491172e+00
3.044085023718690536e+03 1.000000000000000000e+01
3.304762637853132219e+03 1.778279410038922848e+01
3.574665179642441217e+03 3.162277660168379256e+01
3.860167994972453926e+03 5.623413251903490817e+01
4.168369980743039378e+03 1.000000000000000000e+02
4.502818198257151380e+03 1.778279410038922776e+02
4.879997193586241337e+03 3.162277660168379612e+02
