# Temperature (K), Pressure (bars)
8.637645681492064114e+02 1.778279410038922901e-05
9.250299773741987792e+02 3.162277660168379530e-05
9.862953888865945373e+02 5.623413251903490700e-05
1.043752376020949669e+03 1.000000000000000048e-04
1.092284447914440079e+03 1.778279410038922698e-04
1.132394337171971529e+03 3.162277660168379394e-04
1.169616596771342074e+03 5.623413251903490971e-04
1.206291455679463979e+03 1.000000000000000021e-03
1.266227883139501955e+03 1.778279410038922752e-03
1.372304147067062786e+03 3.162277660168379394e-03
1.512295525332448506e+03 5.623413251903490971e-03
1.656073387180653526e+03 1.000000000000000021e-02
1.772938583418971575e+03 1.778279410038922925e-02
1.866202619073885671e+03 3.162277660168379134e-02
1.964344858950207026e+03 5.623413251903491145e-02
2.073410813007293655e+03 1.000000000000000056e-01
2.218337705069126514e+03 1.778279410038922925e-01
2.426747813815219160e+03 3.162277660168379412e-01
2.648416174584047894e+03 5.623413251903490728e-01
2.852300304415558458e+03 1.000000000000000000e+00
3.056216837062888771e+03 1.778279410038922759e+00
3.264832746367344498e+03 3.162277660168379523e+00
3.482022063197926400e+03 5.623413251903491172e+00
3.712654581655426227e+03 1.000000000000000000e+01
3.962185206755274066e+03 1.778279410038922848e+01
4.238418823353246808e+03 3.162277660168379256e+01
4.546950349203198130e+03 5.623413251903490817e+01
4.895785936169069828e+03 1.000000000000000000e+02
5.288621132159822992e+03 1.778279410038922776e+02
5.750809471752185345e+03 3.162277660168379612e+02
