# Temperature (K), Pressure (bars)
1.947467037367542389e+03 9.999999999999999547e-07
1.950774676725443669e+03 1.778279410038922901e-06
1.954082316087323761e+03 3.162277660168379191e-06
1.963887409278427640e+03 5.623413251903491208e-06
1.980978102542304669e+03 1.000000000000000082e-05
2.005516904396733025e+03 1.778279410038922901e-05
2.036295142208193738e+03 3.162277660168379530e-05
2.069763255010518606e+03 5.623413251903490700e-05
2.103219262356749823e+03 1.000000000000000048e-04
2.135836682178362480e+03 1.778279410038922698e-04
2.168265482846692066e+03 3.162277660168379394e-04
2.201732602842643246e+03 5.623413251903490971e-04
2.237843290624913607e+03 1.000000000000000021e-03
2.278203682156421564e+03 1.778279410038922752e-03
2.324527072518710156e+03 3.162277660168379394e-03
2.378176012952706060e+03 5.623413251903490971e-03
2.442668127623006512e+03 1.000000000000000021e-02
2.530809766510531972e+03 1.778279410038922925e-02
2.647509331107085927e+03 3.162277660168379134e-02
2.779439583156051867e+03 5.623413251903491145e-02
2.920608149082490854e+03 1.000000000000000056e-01
3.074968715293440710e+03 1.778279410038922925e-01
3.244904844166515431e+03 3.162277660168379412e-01
3.431674622041858129e+03 5.623413251903490728e-01
3.635579967622270487e+03 1.000000000000000000e+00
3.858232553309669129e+03 1.778279410038922759e+00
4.104180707740674734e+03 3.162277660168379523e+00
4.380890939853158670e+03 5.623413251903491172e+00
4.698962837674107504e+03 1.000000000000000000e+01
5.072769756900797802e+03 1.778279410038922848e+01
5.527547493676937847e+03 3.162277660168379256e+01
6.101109252446176470e+03 5.623413251903490817e+01
6.860362155790875477e+03 1.000000000000000000e+02
7.915469824478632290e+03 1.778279410038922776e+02
9.401564548996266240e+03 3.162277660168379612e+02
