# Temperature (K), Pressure (bars)
9.207987151011303695e+02 5.623413251903490971e-04
9.640970411120912331e+02 1.000000000000000021e-03
1.007395368627687390e+03 1.778279410038922752e-03
1.051684319473466985e+03 3.162277660168379394e-03
1.097198260076257384e+03 5.623413251903490971e-03
1.143838245016711198e+03 1.000000000000000021e-02
1.192571358416739031e+03 1.778279410038922925e-02
1.245897998679530929e+03 3.162277660168379134e-02
1.306454827896041706e+03 5.623413251903491145e-02
1.392125234849771914e+03 1.000000000000000056e-01
1.549158998351502760e+03 1.778279410038922925e-01
1.786419214706734692e+03 3.162277660168379412e-01
2.053689019290063698e+03 5.623413251903490728e-01
2.318664099361127228e+03 1.000000000000000000e+00
2.575139725249493040e+03 1.778279410038922759e+00
2.820836726597530287e+03 3.162277660168379523e+00
3.060495650573646344e+03 5.623413251903491172e+00
3.300976745638165539e+03 1.000000000000000000e+01
3.549464781736658551e+03 1.778279410038922848e+01
3.814633715862815279e+03 3.162277660168379256e+01
4.101877011100766140e+03 5.623413251903490817e+01
4.417960621987402192e+03 1.000000000000000000e+02
4.765922513038503894e+03 1.778279410038922776e+02
5.164325451262554452e+03 3.162277660168379612e+02
