# Temperature (K), Pressure (bars)
8.835251123931509483e+02 3.162277660168379394e-04
9.223247258720002719e+02 5.623413251903490971e-04
9.611243402655661612e+02 1.000000000000000021e-03
1.001894326700819647e+03 1.778279410038922752e-03
1.045000838910161065e+03 3.162277660168379394e-03
1.089281839166118971e+03 5.623413251903490971e-03
1.134836464694014012e+03 1.000000000000000021e-02
1.182516356362440774e+03 1.778279410038922925e-02
1.235982322386213582e+03 3.162277660168379134e-02
1.295625625330474350e+03 5.623413251903491145e-02
1.394005125007628521e+03 1.000000000000000056e-01
1.579805194962890255e+03 1.778279410038922925e-01
1.829045450149680846e+03 3.162277660168379412e-01
2.094548963493409246e+03 5.623413251903490728e-01
2.358594679335810270e+03 1.000000000000000000e+00
2.611759345565033072e+03 1.778279410038922759e+00
2.853865986426419113e+03 3.162277660168379523e+00
3.090390503217928199e+03 5.623413251903491172e+00
3.328675893377627744e+03 1.000000000000000000e+01
3.576014441624795836e+03 1.778279410038922848e+01
3.841067382282005838e+03 3.162277660168379256e+01
4.128917840075557251e+03 5.623413251903490817e+01
4.446251824375085562e+03 1.000000000000000000e+02
4.796012563147083711e+03 1.778279410038922776e+02
5.197257004845462689e+03 3.162277660168379612e+02
