# Temperature (K), Pressure (bars)
1.754328320589380382e+03 3.162277660168379530e-05
1.765868017181521509e+03 5.623413251903490700e-05
1.777407715367076662e+03 1.000000000000000048e-04
1.793586271572714622e+03 1.778279410038922698e-04
1.817445988182035535e+03 3.162277660168379394e-04
1.846023985349770555e+03 5.623413251903490971e-04
1.877394809331212855e+03 1.000000000000000021e-03
1.913087602024276293e+03 1.778279410038922752e-03
1.951956451293694499e+03 3.162277660168379394e-03
1.993196226054415547e+03 5.623413251903490971e-03
2.037967799381273608e+03 1.000000000000000021e-02
2.085887924550921980e+03 1.778279410038922925e-02
2.137914869386980172e+03 3.162277660168379134e-02
2.193879723389219635e+03 5.623413251903491145e-02
2.261652903052939109e+03 1.000000000000000056e-01
2.342155394219828850e+03 1.778279410038922925e-01
2.458061854840700562e+03 3.162277660168379412e-01
2.641545600609513258e+03 5.623413251903490728e-01
2.848980772845290630e+03 1.000000000000000000e+00
3.048244813346075262e+03 1.778279410038922759e+00
3.254499782075438816e+03 3.162277660168379523e+00
3.472192484893625988e+03 5.623413251903491172e+00
3.704368599897963122e+03 1.000000000000000000e+01
3.955158841481690160e+03 1.778279410038922848e+01
4.231373642317180384e+03 3.162277660168379256e+01
4.539640272918489245e+03 5.623413251903490817e+01
4.888027400149906498e+03 1.000000000000000000e+02
5.280336248182928102e+03 1.778279410038922776e+02
5.741945854757958841e+03 3.162277660168379612e+02
