# Temperature (K), Pressure (bars)
8.698099879838954394e+02 3.162277660168379394e-04
9.149047231659053523e+02 5.623413251903490971e-04
9.599994595695748103e+02 1.000000000000000021e-03
1.005663369834093942e+03 1.778279410038922752e-03
1.051101304830067193e+03 3.162277660168379394e-03
1.096889565429012237e+03 5.623413251903490971e-03
1.144235390799479319e+03 1.000000000000000021e-02
1.197923732970214360e+03 1.778279410038922925e-02
1.258977399456270859e+03 3.162277660168379134e-02
1.355829159226117099e+03 5.623413251903491145e-02
1.535738583438009073e+03 1.000000000000000056e-01
1.779808498258178361e+03 1.778279410038922925e-01
2.041766418533313754e+03 3.162277660168379412e-01
2.301455885216232218e+03 5.623413251903490728e-01
2.548046212016099162e+03 1.000000000000000000e+00
2.780704405141784264e+03 1.778279410038922759e+00
3.005380374995276725e+03 3.162277660168379523e+00
3.229801263403935081e+03 5.623413251903491172e+00
3.461153804946235141e+03 1.000000000000000000e+01
3.705841413863171965e+03 1.778279410038922848e+01
3.972240978745340726e+03 3.162277660168379256e+01
4.264683916093743392e+03 5.623413251903490817e+01
4.590015343337424383e+03 1.000000000000000000e+02
4.951685312329554108e+03 1.778279410038922776e+02
5.369603840698335262e+03 3.162277660168379612e+02
