# Temperature (K), Pressure (bars)
1.003432595691813049e+03 5.623413251903490700e-05
1.060249569817047131e+03 1.000000000000000048e-04
1.117066546260941323e+03 1.778279410038922698e-04
1.171100415673989119e+03 3.162277660168379394e-04
1.223202651341610135e+03 5.623413251903490971e-04
1.273399119125380821e+03 1.000000000000000021e-03
1.324621199347189076e+03 1.778279410038922752e-03
1.383116269032418131e+03 3.162277660168379394e-03
1.454814145572679081e+03 5.623413251903490971e-03
1.545321868603072744e+03 1.000000000000000021e-02
1.644924069686131361e+03 1.778279410038922925e-02
1.746382867868858057e+03 3.162277660168379134e-02
1.867084112696768443e+03 5.623413251903491145e-02
1.997754248496959917e+03 1.000000000000000056e-01
2.139676450827523240e+03 1.778279410038922925e-01
2.327142091726916533e+03 3.162277660168379412e-01
2.542467238093666310e+03 5.623413251903490728e-01
2.753890900710219285e+03 1.000000000000000000e+00
2.962472623168188875e+03 1.778279410038922759e+00
3.174129991783323931e+03 3.162277660168379523e+00
3.393251506296147909e+03 5.623413251903491172e+00
3.624113674670858472e+03 1.000000000000000000e+01
3.871758283259719065e+03 1.778279410038922848e+01
4.143651514004517594e+03 3.162277660168379256e+01
4.445457865367297927e+03 5.623413251903490817e+01
4.784709416313805377e+03 1.000000000000000000e+02
5.165265840690266486e+03 1.778279410038922776e+02
5.609647177257484145e+03 3.162277660168379612e+02
