# Temperature (K), Pressure (bars)
2.314217064841002866e+03 9.999999999999999547e-07
2.329585029340804340e+03 1.778279410038922901e-06
2.344952993840605814e+03 3.162277660168379191e-06
2.366537342106876622e+03 5.623413251903491208e-06
2.392302812981681654e+03 1.000000000000000082e-05
2.419551946161768228e+03 1.778279410038922901e-05
2.448072918626312912e+03 3.162277660168379530e-05
2.477759104066680720e+03 5.623413251903490700e-05
2.508067415367924696e+03 1.000000000000000048e-04
2.538101656717145943e+03 1.778279410038922698e-04
2.566643388798221622e+03 3.162277660168379394e-04
2.592223270468189185e+03 5.623413251903490971e-04
2.614049831288501537e+03 1.000000000000000021e-03
2.633283278894638443e+03 1.778279410038922752e-03
2.652887958292708390e+03 3.162277660168379394e-03
2.676837837003187815e+03 5.623413251903490971e-03
2.707527499766700657e+03 1.000000000000000021e-02
2.748989208449049784e+03 1.778279410038922925e-02
2.801517831252765518e+03 3.162277660168379134e-02
2.875824405943089005e+03 5.623413251903491145e-02
2.991261260812405453e+03 1.000000000000000056e-01
3.136068498710053518e+03 1.778279410038922925e-01
3.295672049545174104e+03 3.162277660168379412e-01
3.474070212881417774e+03 5.623413251903490728e-01
3.674686284511000395e+03 1.000000000000000000e+00
3.900492912735409845e+03 1.778279410038922759e+00
4.154885414579701319e+03 3.162277660168379523e+00
4.444209619135586763e+03 5.623413251903491172e+00
4.779749298899533642e+03 1.000000000000000000e+01
5.175025188846513629e+03 1.778279410038922848e+01
5.663925157434956418e+03 3.162277660168379256e+01
6.295091744438028400e+03 5.623413251903490817e+01
7.156715541734156432e+03 1.000000000000000000e+02
8.386118007797687824e+03 1.778279410038922776e+02
1.000000000000000000e+04 3.162277660168379612e+02
