# Temperature (K), Pressure (bars)
1.633419688518197745e+03 9.999999999999999547e-07
1.639578089882006225e+03 1.778279410038922901e-06
1.645736491249665505e+03 3.162277660168379191e-06
1.655725977658409647e+03 5.623413251903491208e-06
1.670597749089496574e+03 1.000000000000000082e-05
1.691902656543795047e+03 1.778279410038922901e-05
1.720511489725361571e+03 3.162277660168379530e-05
1.755269113261360417e+03 5.623413251903490700e-05
1.796987550470948918e+03 1.000000000000000048e-04
1.845316827846727620e+03 1.778279410038922698e-04
1.898380757387374160e+03 3.162277660168379394e-04
1.955652742222574034e+03 5.623413251903490971e-04
2.017864023588623013e+03 1.000000000000000021e-03
2.085398891131363598e+03 1.778279410038922752e-03
2.161580546880896691e+03 3.162277660168379394e-03
2.257616568804459348e+03 5.623413251903490971e-03
2.375716815260243038e+03 1.000000000000000021e-02
2.504126313371140895e+03 1.778279410038922925e-02
2.637573646516227200e+03 3.162277660168379134e-02
2.778179834461177506e+03 5.623413251903491145e-02
2.927773808642339645e+03 1.000000000000000056e-01
3.088551184897121857e+03 1.778279410038922925e-01
3.262771172220880089e+03 3.162277660168379412e-01
3.451932638290313662e+03 5.623413251903490728e-01
3.657098295218802832e+03 1.000000000000000000e+00
3.880882494189885620e+03 1.778279410038922759e+00
4.128682491682739965e+03 3.162277660168379523e+00
4.408579337537050378e+03 5.623413251903491172e+00
4.731831141812544956e+03 1.000000000000000000e+01
5.114107326331760305e+03 1.778279410038922848e+01
5.582540010240859374e+03 3.162277660168379256e+01
6.179425757699849783e+03 5.623413251903490817e+01
6.979277501531347298e+03 1.000000000000000000e+02
8.104026943685339575e+03 1.778279410038922776e+02
9.682340809433295362e+03 3.162277660168379612e+02
