# Temperature (K), Pressure (bars)
1.783265902915341030e+03 1.778279410038922901e-05
1.794486564334922832e+03 3.162277660168379530e-05
1.805707229928024390e+03 5.623413251903490700e-05
1.824517625271543466e+03 1.000000000000000048e-04
1.848767667205167754e+03 1.778279410038922698e-04
1.876588156605955419e+03 3.162277660168379394e-04
1.909273985288195036e+03 5.623413251903490971e-04
1.944289596856646313e+03 1.000000000000000021e-03
1.978942147575773106e+03 1.778279410038922752e-03
2.013698960406383776e+03 3.162277660168379394e-03
2.048708043336800074e+03 5.623413251903490971e-03
2.084286510756209736e+03 1.000000000000000021e-02
2.121864808134916075e+03 1.778279410038922925e-02
2.162002047572174888e+03 3.162277660168379134e-02
2.206866511572131003e+03 5.623413251903491145e-02
2.258929335606235782e+03 1.000000000000000056e-01
2.327345097333347894e+03 1.778279410038922925e-01
2.414653216063625678e+03 3.162277660168379412e-01
2.545891870117810868e+03 5.623413251903490728e-01
2.746473416703057410e+03 1.000000000000000000e+00
2.966354054378741239e+03 1.778279410038922759e+00
3.176623246004413431e+03 3.162277660168379523e+00
3.395290731760484505e+03 5.623413251903491172e+00
3.627051219057512753e+03 1.000000000000000000e+01
3.875882940754339870e+03 1.778279410038922848e+01
4.148296714019593310e+03 3.162277660168379256e+01
4.450681698298601987e+03 5.623413251903490817e+01
4.790681027606002317e+03 1.000000000000000000e+02
5.172185403783952097e+03 1.778279410038922776e+02
5.618112318150915598e+03 3.162277660168379612e+02
