# Temperature (K), Pressure (bars)
1.268674792894461234e+03 3.162277660168379530e-05
1.299236744188050352e+03 5.623413251903490700e-05
1.329798697359676680e+03 1.000000000000000048e-04
1.364201534275634913e+03 1.778279410038922698e-04
1.404751619381116370e+03 3.162277660168379394e-04
1.451824694799279996e+03 5.623413251903490971e-04
1.507105812737945826e+03 1.000000000000000021e-03
1.575431220650732257e+03 1.778279410038922752e-03
1.654594184595351408e+03 3.162277660168379394e-03
1.731562270185514308e+03 5.623413251903490971e-03
1.803823052926681157e+03 1.000000000000000021e-02
1.877410208516959983e+03 1.778279410038922925e-02
1.959726994587950230e+03 3.162277660168379134e-02
2.053379778576073477e+03 5.623413251903491145e-02
2.175038878981467406e+03 1.000000000000000056e-01
2.347882280283852197e+03 1.778279410038922925e-01
2.545030818454343716e+03 3.162277660168379412e-01
2.737853673935911957e+03 5.623413251903490728e-01
2.930365504424607025e+03 1.000000000000000000e+00
3.127656805071089821e+03 1.778279410038922759e+00
3.333401066502734921e+03 3.162277660168379523e+00
3.550633694922288214e+03 5.623413251903491172e+00
3.783128578387883408e+03 1.000000000000000000e+01
4.035937216935973083e+03 1.778279410038922848e+01
4.316764839460042822e+03 3.162277660168379256e+01
4.631874478279624782e+03 5.623413251903490817e+01
4.989885454353990099e+03 1.000000000000000000e+02
5.395005425809800727e+03 1.778279410038922776e+02
5.874793426070214082e+03 3.162277660168379612e+02
