# Temperature (K), Pressure (bars)
1.271075680381070015e+03 1.778279410038922901e-05
1.305631980133482330e+03 3.162277660168379530e-05
1.340188282880796805e+03 5.623413251903490700e-05
1.378558550200619720e+03 1.000000000000000048e-04
1.419888196359522453e+03 1.778279410038922698e-04
1.472344407519004108e+03 3.162277660168379394e-04
1.552460027721369215e+03 5.623413251903490971e-04
1.632164915730341363e+03 1.000000000000000021e-03
1.689109090270153274e+03 1.778279410038922752e-03
1.738557335115509431e+03 3.162277660168379394e-03
1.788875823810176598e+03 5.623413251903490971e-03
1.842296873579503426e+03 1.000000000000000021e-02
1.898920281177827292e+03 1.778279410038922925e-02
1.959680541468467482e+03 3.162277660168379134e-02
2.027762253695242634e+03 5.623413251903491145e-02
2.111188322927845093e+03 1.000000000000000056e-01
2.210126618640099878e+03 1.778279410038922925e-01
2.348318993922824575e+03 3.162277660168379412e-01
2.551432582467388329e+03 5.623413251903490728e-01
2.771214749583667071e+03 1.000000000000000000e+00
2.978058850001861174e+03 1.778279410038922759e+00
3.188511323352402997e+03 3.162277660168379523e+00
3.407491916886434865e+03 5.623413251903491172e+00
3.638738347608189997e+03 1.000000000000000000e+01
3.887039005928744245e+03 1.778279410038922848e+01
4.159717195310504394e+03 3.162277660168379256e+01
4.462724142099013079e+03 5.623413251903490817e+01
4.803732559945433422e+03 1.000000000000000000e+02
5.186558589128944732e+03 1.778279410038922776e+02
5.634341815648237571e+03 3.162277660168379612e+02
