# Temperature (K), Pressure (bars)
8.685830088684655266e+02 3.162277660168379394e-04
9.077558677667170741e+02 5.623413251903490971e-04
9.469287276380335925e+02 1.000000000000000021e-03
9.874125340700943525e+02 1.778279410038922752e-03
1.030377993769821387e+03 3.162277660168379394e-03
1.074877718622213251e+03 5.623413251903490971e-03
1.120543386658947611e+03 1.000000000000000021e-02
1.169149834917908947e+03 1.778279410038922925e-02
1.223491442465197224e+03 3.162277660168379134e-02
1.289741356403368854e+03 5.623413251903491145e-02
1.375117118614748961e+03 1.000000000000000056e-01
1.521245510496441284e+03 1.778279410038922925e-01
1.755885227877209900e+03 3.162277660168379412e-01
2.025876547435057546e+03 5.623413251903490728e-01
2.292942947956117678e+03 1.000000000000000000e+00
2.553607443047199922e+03 1.778279410038922759e+00
2.802191021295887367e+03 3.162277660168379523e+00
3.043465080247317019e+03 5.623413251903491172e+00
3.284719915749464235e+03 1.000000000000000000e+01
3.533505670210435710e+03 1.778279410038922848e+01
3.798697754893711590e+03 3.162277660168379256e+01
4.085552329508234834e+03 5.623413251903490817e+01
4.400737961507366890e+03 1.000000000000000000e+02
4.747389150790893837e+03 1.778279410038922776e+02
5.143778024870694935e+03 3.162277660168379612e+02
