# Temperature (K), Pressure (bars)
2.261454531860773841e+03 9.999999999999999547e-07
2.287478192002909054e+03 1.778279410038922901e-06
2.313501852145044722e+03 3.162277660168379191e-06
2.340064571657990655e+03 5.623413251903491208e-06
2.368455251193295226e+03 1.000000000000000082e-05
2.397423919241681233e+03 1.778279410038922901e-05
2.425242348095961461e+03 3.162277660168379530e-05
2.449116526636892104e+03 5.623413251903490700e-05
2.465307930309812946e+03 1.000000000000000048e-04
2.475101307573213035e+03 1.778279410038922698e-04
2.487138400961363914e+03 3.162277660168379394e-04
2.510745376979351477e+03 5.623413251903490971e-04
2.549125329929070631e+03 1.000000000000000021e-03
2.601529988057055562e+03 1.778279410038922752e-03
2.666788601470828780e+03 3.162277660168379394e-03
2.745529692419420371e+03 5.623413251903490971e-03
2.837466294513560570e+03 1.000000000000000021e-02
2.944640646118581571e+03 1.778279410038922925e-02
3.073020956967932761e+03 3.162277660168379134e-02
3.222950107066340479e+03 5.623413251903491145e-02
3.398707137193192466e+03 1.000000000000000056e-01
3.592688058880430617e+03 1.778279410038922925e-01
3.822838479487855238e+03 3.162277660168379412e-01
4.090848262817815339e+03 5.623413251903490728e-01
4.423520028349498716e+03 1.000000000000000000e+00
4.879837364309576515e+03 1.778279410038922759e+00
5.583244482257478921e+03 3.162277660168379523e+00
6.717971986107524572e+03 5.623413251903491172e+00
8.284711078111480674e+03 1.000000000000000000e+01
1.000000000000000000e+04 1.778279410038922848e+01
1.000000000000000000e+04 3.162277660168379256e+01
1.000000000000000000e+04 5.623413251903490817e+01
1.000000000000000000e+04 1.000000000000000000e+02
1.000000000000000000e+04 1.778279410038922776e+02
1.000000000000000000e+04 3.162277660168379612e+02
