# Temperature (K), Pressure (bars)
7.752813311706662489e+02 3.162277660168379394e-04
8.212964791566762415e+02 5.623413251903490971e-04
8.673116280707243959e+02 1.000000000000000021e-03
9.126286950793748929e+02 1.778279410038922752e-03
9.579720469454393879e+02 3.162277660168379394e-03
1.005748212657014392e+03 5.623413251903490971e-03
1.059640218629600668e+03 1.000000000000000021e-02
1.123179127234197040e+03 1.778279410038922925e-02
1.203181574640426788e+03 3.162277660168379134e-02
1.304551720922888308e+03 5.623413251903491145e-02
1.453476348803500059e+03 1.000000000000000056e-01
1.675681007814615668e+03 1.778279410038922925e-01
1.937252553142618581e+03 3.162277660168379412e-01
2.201856671098081733e+03 5.623413251903490728e-01
2.458701491193434322e+03 1.000000000000000000e+00
2.701005814067004849e+03 1.778279410038922759e+00
2.932764420440946651e+03 3.162277660168379523e+00
3.161638698911751362e+03 5.623413251903491172e+00
3.395255047908445249e+03 1.000000000000000000e+01
3.640381877455791710e+03 1.778279410038922848e+01
3.905572143787087043e+03 3.162277660168379256e+01
4.195133003563767488e+03 5.623413251903490817e+01
4.515850295407361045e+03 1.000000000000000000e+02
4.870826710380082659e+03 1.778279410038922776e+02
5.279513673489091161e+03 3.162277660168379612e+02
