# Temperature (K), Pressure (bars)
9.793367366553375177e+02 9.999999999999999547e-07
1.023092275570463244e+03 1.778279410038922901e-06
1.066847814486054631e+03 3.162277660168379191e-06
1.128587187520641237e+03 5.623413251903491208e-06
1.219421616140151627e+03 1.000000000000000082e-05
1.339380480305424044e+03 1.778279410038922901e-05
1.486973186833272621e+03 3.162277660168379530e-05
1.621326385931695086e+03 5.623413251903490700e-05
1.710123330605566025e+03 1.000000000000000048e-04
1.770852903236179827e+03 1.778279410038922698e-04
1.822810816053762665e+03 3.162277660168379394e-04
1.869660069506922810e+03 5.623413251903490971e-04
1.913046464152315366e+03 1.000000000000000021e-03
1.956566834002240284e+03 1.778279410038922752e-03
2.002684189807857820e+03 3.162277660168379394e-03
2.053686475688957216e+03 5.623413251903490971e-03
2.111997831336589115e+03 1.000000000000000021e-02
2.181117119997616101e+03 1.778279410038922925e-02
2.265141935479551648e+03 3.162277660168379134e-02
2.381161200434009970e+03 5.623413251903491145e-02
2.535939960846089889e+03 1.000000000000000056e-01
2.703136221768557334e+03 1.778279410038922925e-01
2.871186508448954100e+03 3.162277660168379412e-01
3.047677833398053281e+03 5.623413251903490728e-01
3.233894218680435188e+03 1.000000000000000000e+00
3.430461381046985480e+03 1.778279410038922759e+00
3.639612293384379427e+03 3.162277660168379523e+00
3.865457772841665246e+03 5.623413251903491172e+00
4.113222445575351230e+03 1.000000000000000000e+01
4.389080953494591085e+03 1.778279410038922848e+01
4.700655798347904238e+03 3.162277660168379256e+01
5.058235604968565895e+03 5.623413251903490817e+01
5.479822174406630438e+03 1.000000000000000000e+02
5.980485826034768252e+03 1.778279410038922776e+02
6.587726396464166100e+03 3.162277660168379612e+02
