# Temperature (K), Pressure (bars)
1.753694654988783213e+03 9.999999999999999547e-07
1.805598870265495407e+03 1.778279410038922901e-06
1.857503085542207145e+03 3.162277660168379191e-06
1.908022355025443176e+03 5.623413251903491208e-06
1.954891962122989980e+03 1.000000000000000082e-05
1.998369678868974461e+03 1.778279410038922901e-05
2.040381189522893692e+03 3.162277660168379530e-05
2.082356299172762192e+03 5.623413251903490700e-05
2.126097951600602755e+03 1.000000000000000048e-04
2.173297252046067570e+03 1.778279410038922698e-04
2.225548016676919815e+03 3.162277660168379394e-04
2.284891389293280554e+03 5.623413251903490971e-04
2.354700176570525855e+03 1.000000000000000021e-03
2.439587053177567668e+03 1.778279410038922752e-03
2.539807525411558345e+03 3.162277660168379394e-03
2.651647495255572721e+03 5.623413251903490971e-03
2.773635594941020372e+03 1.000000000000000021e-02
2.907261641609508843e+03 1.778279410038922925e-02
3.056159384687111015e+03 3.162277660168379134e-02
3.229520041786527599e+03 5.623413251903491145e-02
3.405132263622549544e+03 1.000000000000000056e-01
3.608257767964952109e+03 1.778279410038922925e-01
3.846408205206158982e+03 3.162277660168379412e-01
4.117353418057735325e+03 5.623413251903490728e-01
4.462950022526564680e+03 1.000000000000000000e+00
4.945117686588760989e+03 1.778279410038922759e+00
5.686929273443392958e+03 3.162277660168379523e+00
6.842751354700798402e+03 5.623413251903491172e+00
8.436633735747429455e+03 1.000000000000000000e+01
1.000000000000000000e+04 1.778279410038922848e+01
1.000000000000000000e+04 3.162277660168379256e+01
1.000000000000000000e+04 5.623413251903490817e+01
1.000000000000000000e+04 1.000000000000000000e+02
1.000000000000000000e+04 1.778279410038922776e+02
1.000000000000000000e+04 3.162277660168379612e+02
