# Temperature (K), Pressure (bars)
2.227480242299065594e+03 9.999999999999999547e-07
2.237628174179702910e+03 1.778279410038922901e-06
2.247776106060339771e+03 3.162277660168379191e-06
2.272940595548045621e+03 5.623413251903491208e-06
2.303510631876632033e+03 1.000000000000000082e-05
2.337061570103717258e+03 1.778279410038922901e-05
2.377052247890680519e+03 3.162277660168379530e-05
2.423985015061302875e+03 5.623413251903490700e-05
2.478539840892310167e+03 1.000000000000000048e-04
2.538860562290737107e+03 1.778279410038922698e-04
2.603550317671828907e+03 3.162277660168379394e-04
2.671624865814783334e+03 5.623413251903490971e-04
2.741406720680868602e+03 1.000000000000000021e-03
2.810382515168888403e+03 1.778279410038922752e-03
2.874381198350872182e+03 3.162277660168379394e-03
2.932362247225144074e+03 5.623413251903490971e-03
2.986038084099428943e+03 1.000000000000000021e-02
3.044211723556787092e+03 1.778279410038922925e-02
3.103232059133632447e+03 3.162277660168379134e-02
3.176730921014218438e+03 5.623413251903491145e-02
3.308195022972229253e+03 1.000000000000000056e-01
3.489679849915388786e+03 1.778279410038922925e-01
3.704581649846737491e+03 3.162277660168379412e-01
3.975612946125080725e+03 5.623413251903490728e-01
4.259415401729177574e+03 1.000000000000000000e+00
4.617587240079798903e+03 1.778279410038922759e+00
5.106569171852697764e+03 3.162277660168379523e+00
5.850399019773838518e+03 5.623413251903491172e+00
7.034009925380163622e+03 1.000000000000000000e+01
8.653270853775127762e+03 1.778279410038922848e+01
1.000000000000000000e+04 3.162277660168379256e+01
1.000000000000000000e+04 5.623413251903490817e+01
1.000000000000000000e+04 1.000000000000000000e+02
1.000000000000000000e+04 1.778279410038922776e+02
1.000000000000000000e+04 3.162277660168379612e+02
