# Temperature (K), Pressure (bars)
8.254401481372626222e+03 9.999999999999999547e-07
9.199309254655368932e+03 1.778279410038922901e-06
1.096017725952629917e+04 3.162277660168379191e-06
1.312371451194631481e+04 5.623413251903491208e-06
1.542095309805304350e+04 1.000000000000000082e-05
1.767378136224651462e+04 1.778279410038922901e-05
1.973294611328589235e+04 3.162277660168379530e-05
2.152676956966340367e+04 5.623413251903490700e-05
2.307733507457024098e+04 1.000000000000000048e-04
2.444958790140774727e+04 1.778279410038922698e-04
2.571430729499837616e+04 3.162277660168379394e-04
2.693055144175214446e+04 5.623413251903490971e-04
2.814566663856348896e+04 1.000000000000000021e-03
2.939703477435103196e+04 1.778279410038922752e-03
3.071652306991039586e+04 3.162277660168379394e-03
3.213835472564616066e+04 5.623413251903490971e-03
3.370082845564511808e+04 1.000000000000000021e-02
3.545288043634372298e+04 1.778279410038922925e-02
3.745595693930794368e+04 3.162277660168379134e-02
3.979084419488828280e+04 5.623413251903491145e-02
4.256591000514522602e+04 1.000000000000000056e-01
4.592075598134675238e+04 1.778279410038922925e-01
5.003909951873097452e+04 3.162277660168379412e-01
5.515669787876182090e+04 5.623413251903490728e-01
6.158279202695648564e+04 1.000000000000000000e+00
6.969688094565662323e+04 1.778279410038922759e+00
7.999268992870890361e+04 3.162277660168379523e+00
9.307415772749089228e+04 5.623413251903491172e+00
1.096896098423893854e+05 1.000000000000000000e+01
1.307554376743531902e+05 1.778279410038922848e+01
1.573438003514317388e+05 3.162277660168379256e+01
1.906884849014387291e+05 5.623413251903490817e+01
2.320605282846672344e+05 1.000000000000000000e+02
2.825515087117739604e+05 1.778279410038922776e+02
3.427925094677597517e+05 3.162277660168379612e+02
