# Temperature (K), Pressure (bars)
8.765380908815016028e+02 1.000000000000000021e-03
9.127098533760217833e+02 1.778279410038922752e-03
9.488816157013600332e+02 3.162277660168379394e-03
9.837162208090517197e+02 5.623413251903490971e-03
1.019616022375743455e+03 1.000000000000000021e-02
1.057193391870373262e+03 1.778279410038922925e-02
1.095952200030799531e+03 3.162277660168379134e-02
1.137339165307436588e+03 5.623413251903491145e-02
1.183754823358453677e+03 1.000000000000000056e-01
1.239626654530928136e+03 1.778279410038922925e-01
1.307528928569242680e+03 3.162277660168379412e-01
1.394893344621217921e+03 5.623413251903490728e-01
1.521120864915557377e+03 1.000000000000000000e+00
1.712074057232219729e+03 1.778279410038922759e+00
1.971013759139572812e+03 3.162277660168379523e+00
2.261404845169389773e+03 5.623413251903491172e+00
2.556543126518984991e+03 1.000000000000000000e+01
2.851745815310471698e+03 1.778279410038922848e+01
3.147534625836234227e+03 3.162277660168379256e+01
3.446692962277344122e+03 5.623413251903490817e+01
3.757053104478159185e+03 1.000000000000000000e+02
4.083950930128645723e+03 1.778279410038922776e+02
4.441494755186277871e+03 3.162277660168379612e+02
