# Temperature (K), Pressure (bars)
8.781362874530697127e+02 3.162277660168379530e-05
9.224362259802443305e+02 5.623413251903490700e-05
9.667361653260952608e+02 1.000000000000000048e-04
1.011381842678531484e+03 1.778279410038922698e-04
1.054610894299974689e+03 3.162277660168379394e-04
1.096067022845434167e+03 5.623413251903490971e-04
1.135807034207527067e+03 1.000000000000000021e-03
1.173736302968598693e+03 1.778279410038922752e-03
1.214417548861291380e+03 3.162277660168379394e-03
1.264170577612265561e+03 5.623413251903490971e-03
1.315542513923652905e+03 1.000000000000000021e-02
1.371382366375655010e+03 1.778279410038922925e-02
1.424850765089040124e+03 3.162277660168379134e-02
1.506875944938746215e+03 5.623413251903491145e-02
1.693567104936471424e+03 1.000000000000000056e-01
1.949751559958093594e+03 1.778279410038922925e-01
2.208856123110048429e+03 3.162277660168379412e-01
2.456892963404591228e+03 5.623413251903490728e-01
2.686732281000392504e+03 1.000000000000000000e+00
2.904200978795309766e+03 1.778279410038922759e+00
3.118074942192814888e+03 3.162277660168379523e+00
3.336148760839262195e+03 5.623413251903491172e+00
3.564710948929042388e+03 1.000000000000000000e+01
3.809478954770710516e+03 1.778279410038922848e+01
4.078601388452820629e+03 3.162277660168379256e+01
4.376298731110797235e+03 5.623413251903490817e+01
4.709587690867366291e+03 1.000000000000000000e+02
5.081711884674300563e+03 1.778279410038922776e+02
5.514401230724628476e+03 3.162277660168379612e+02
