# Temperature (K), Pressure (bars)
1.047719384758465139e+03 9.999999999999999547e-07
1.056184229240233208e+03 1.778279410038922901e-06
1.064649073728675148e+03 3.162277660168379191e-06
1.078561091205318917e+03 5.623413251903491208e-06
1.099968032098644471e+03 1.000000000000000082e-05
1.127647627110257417e+03 1.778279410038922901e-05
1.160753677518365748e+03 3.162277660168379530e-05
1.200025345562038183e+03 5.623413251903490700e-05
1.245095813486611405e+03 1.000000000000000048e-04
1.295104913742713279e+03 1.778279410038922698e-04
1.350044613476812856e+03 3.162277660168379394e-04
1.412412924319123249e+03 5.623413251903490971e-04
1.481116686963855045e+03 1.000000000000000021e-03
1.558953203587454027e+03 1.778279410038922752e-03
1.652708579516265445e+03 3.162277660168379394e-03
1.756513769186584568e+03 5.623413251903490971e-03
1.860451987013426788e+03 1.000000000000000021e-02
1.986684670523050499e+03 1.778279410038922925e-02
2.160736953810722298e+03 3.162277660168379134e-02
2.350749382070356205e+03 5.623413251903491145e-02
2.529535691359176781e+03 1.000000000000000056e-01
2.704257953820113926e+03 1.778279410038922925e-01
2.879636650376870875e+03 3.162277660168379412e-01
3.059058115336372339e+03 5.623413251903490728e-01
3.244867775814796005e+03 1.000000000000000000e+00
3.439572176195556949e+03 1.778279410038922759e+00
3.646858021887504492e+03 3.162277660168379523e+00
3.871334188900681966e+03 5.623413251903491172e+00
4.118201392947774366e+03 1.000000000000000000e+01
4.393562729875238801e+03 1.778279410038922848e+01
4.705044984199574174e+03 3.162277660168379256e+01
5.063069307897410908e+03 5.623413251903490817e+01
5.485946318418365991e+03 1.000000000000000000e+02
5.988975346937884751e+03 1.778279410038922776e+02
6.600814520643549258e+03 3.162277660168379612e+02
