# Temperature (K), Pressure (bars)
9.885903190986614391e+02 5.623413251903490700e-05
1.032638688536970676e+03 1.000000000000000048e-04
1.076768455164819215e+03 1.778279410038922698e-04
1.122340860399825488e+03 3.162277660168379394e-04
1.169914229954727489e+03 5.623413251903490971e-04
1.220987948533036615e+03 1.000000000000000021e-03
1.274902637519650625e+03 1.778279410038922752e-03
1.332694042282457303e+03 3.162277660168379394e-03
1.395954819084215615e+03 5.623413251903490971e-03
1.477619340072578325e+03 1.000000000000000021e-02
1.593748550438389884e+03 1.778279410038922925e-02
1.762485126196974988e+03 3.162277660168379134e-02
1.988714481518954699e+03 5.623413251903491145e-02
2.223828636756991727e+03 1.000000000000000056e-01
2.435943571806189539e+03 1.778279410038922925e-01
2.634871356736332928e+03 3.162277660168379412e-01
2.827952583959822277e+03 5.623413251903490728e-01
3.020743646962910589e+03 1.000000000000000000e+00
3.217283674414888083e+03 1.778279410038922759e+00
3.421534716671950264e+03 3.162277660168379523e+00
3.638049220855019030e+03 5.623413251903491172e+00
3.871724115727740354e+03 1.000000000000000000e+01
4.127813134230558717e+03 1.778279410038922848e+01
4.412368528690185485e+03 3.162277660168379256e+01
4.733192722811143540e+03 5.623413251903490817e+01
5.104814644712063455e+03 1.000000000000000000e+02
5.535670407630893351e+03 1.778279410038922776e+02
6.042546870906327058e+03 3.162277660168379612e+02
