# Temperature (K), Pressure (bars)
2.192069525676679859e+03 9.999999999999999547e-07
2.211334261096676073e+03 1.778279410038922901e-06
2.230598996518011518e+03 3.162277660168379191e-06
2.252096599440128557e+03 5.623413251903491208e-06
2.274380874543228856e+03 1.000000000000000082e-05
2.296270144383262959e+03 1.778279410038922901e-05
2.317933443120603442e+03 3.162277660168379530e-05
2.339233640887290676e+03 5.623413251903490700e-05
2.360301231450584510e+03 1.000000000000000048e-04
2.381540846824928849e+03 1.778279410038922698e-04
2.402897836662576537e+03 3.162277660168379394e-04
2.424173070208694298e+03 5.623413251903490971e-04
2.445982247755669050e+03 1.000000000000000021e-03
2.469550572378842844e+03 1.778279410038922752e-03
2.496977977622491380e+03 3.162277660168379394e-03
2.529340094728429904e+03 5.623413251903490971e-03
2.570062268239551486e+03 1.000000000000000021e-02
2.618761459592147276e+03 1.778279410038922925e-02
2.686390681070082792e+03 3.162277660168379134e-02
2.793726788529857004e+03 5.623413251903491145e-02
2.928312213335538218e+03 1.000000000000000056e-01
3.074376888203431918e+03 1.778279410038922925e-01
3.235658720188403095e+03 3.162277660168379412e-01
3.414935949050706768e+03 5.623413251903490728e-01
3.614178161645412729e+03 1.000000000000000000e+00
3.834710422862263840e+03 1.778279410038922759e+00
4.079243833836927479e+03 3.162277660168379523e+00
4.353708407625234031e+03 5.623413251903491172e+00
4.667746982891615517e+03 1.000000000000000000e+01
5.033841426329960996e+03 1.778279410038922848e+01
5.476695107916152665e+03 3.162277660168379256e+01
6.030523436469931767e+03 5.623413251903490817e+01
6.755274531170221053e+03 1.000000000000000000e+02
7.750790729887959060e+03 1.778279410038922776e+02
9.151556419300821290e+03 3.162277660168379612e+02
