# Temperature (K), Pressure (bars)
9.550064908242705997e+02 3.162277660168379394e-04
1.006522126936708332e+03 5.623413251903490971e-04
1.058037764722825614e+03 1.000000000000000021e-03
1.108067498071332466e+03 1.778279410038922752e-03
1.155909457007980109e+03 3.162277660168379394e-03
1.202922244034647065e+03 5.623413251903490971e-03
1.252756488907544963e+03 1.000000000000000021e-02
1.311004954606557249e+03 1.778279410038922925e-02
1.385023787066979821e+03 3.162277660168379134e-02
1.469274743399867248e+03 5.623413251903491145e-02
1.558209661743575225e+03 1.000000000000000056e-01
1.663747604557308705e+03 1.778279410038922925e-01
1.778596196798310757e+03 3.162277660168379412e-01
1.899649429475962734e+03 5.623413251903490728e-01
2.040599307104037507e+03 1.000000000000000000e+00
2.236577697966119104e+03 1.778279410038922759e+00
2.507529747688249699e+03 3.162277660168379523e+00
2.790979809939314691e+03 5.623413251903491172e+00
3.053195537824790790e+03 1.000000000000000000e+01
3.314369854211253823e+03 1.778279410038922848e+01
3.584441258424478747e+03 3.162277660168379256e+01
3.870223778343674894e+03 5.623413251903490817e+01
4.178886307906193906e+03 1.000000000000000000e+02
4.513910356497708563e+03 1.778279410038922776e+02
4.892026814442717296e+03 3.162277660168379612e+02
