# Temperature (K), Pressure (bars)
1.563380614872094611e+03 1.000000000000000048e-04
1.585185556229188478e+03 1.778279410038922698e-04
1.606990500163872184e+03 3.162277660168379394e-04
1.632874502463685985e+03 5.623413251903490971e-04
1.663083226037015265e+03 1.000000000000000021e-03
1.698837068287507236e+03 1.778279410038922752e-03
1.739029690257110133e+03 3.162277660168379394e-03
1.781675233594578231e+03 5.623413251903490971e-03
1.828113956577025874e+03 1.000000000000000021e-02
1.878025883962628996e+03 1.778279410038922925e-02
1.930676474802622579e+03 3.162277660168379134e-02
1.986742249371980961e+03 5.623413251903491145e-02
2.050021234841329715e+03 1.000000000000000056e-01
2.123914960928127584e+03 1.778279410038922925e-01
2.215172927909201917e+03 3.162277660168379412e-01
2.330226834220937235e+03 5.623413251903490728e-01
2.493973986354787939e+03 1.000000000000000000e+00
2.719909899197134564e+03 1.778279410038922759e+00
2.958952683821659775e+03 3.162277660168379523e+00
3.187490808018551888e+03 5.623413251903491172e+00
3.422572210952327623e+03 1.000000000000000000e+01
3.670114915508559079e+03 1.778279410038922848e+01
3.936488503015936203e+03 3.162277660168379256e+01
4.227741580356661871e+03 5.623413251903490817e+01
4.550843788862756810e+03 1.000000000000000000e+02
4.908901026154524516e+03 1.778279410038922776e+02
5.322055589114062968e+03 3.162277660168379612e+02
