# Temperature (K), Pressure (bars)
1.568654783545421196e+03 3.162277660168379191e-06
1.597337710728151251e+03 5.623413251903491208e-06
1.626020642673943257e+03 1.000000000000000082e-05
1.660074129638496743e+03 1.778279410038922901e-05
1.703952018027554914e+03 3.162277660168379530e-05
1.769361868390711606e+03 5.623413251903490700e-05
1.837643393182341015e+03 1.000000000000000048e-04
1.891322716845028253e+03 1.778279410038922698e-04
1.937584492553859036e+03 3.162277660168379394e-04
1.979167433282786760e+03 5.623413251903490971e-04
2.016868070238205064e+03 1.000000000000000021e-03
2.051691204154365096e+03 1.778279410038922752e-03
2.083601428207829485e+03 3.162277660168379394e-03
2.114620200954369921e+03 5.623413251903490971e-03
2.147041528719962571e+03 1.000000000000000021e-02
2.183773804091689726e+03 1.778279410038922925e-02
2.227687322245672021e+03 3.162277660168379134e-02
2.284185264668269610e+03 5.623413251903491145e-02
2.357965583260310723e+03 1.000000000000000056e-01
2.475693089670252448e+03 1.778279410038922925e-01
2.652545448208384187e+03 3.162277660168379412e-01
2.844815053840249675e+03 5.623413251903490728e-01
3.031971903616780764e+03 1.000000000000000000e+00
3.227527781787262484e+03 1.778279410038922759e+00
3.433751783704339232e+03 3.162277660168379523e+00
3.652971047118784554e+03 5.623413251903491172e+00
3.889280484184903798e+03 1.000000000000000000e+01
4.148005723939048039e+03 1.778279410038922848e+01
4.435461379230069724e+03 3.162277660168379256e+01
4.759704518086878124e+03 5.623413251903490817e+01
5.135308608639445993e+03 1.000000000000000000e+02
5.571875952752623562e+03 1.778279410038922776e+02
6.087722202050395026e+03 3.162277660168379612e+02
