# Temperature (K), Pressure (bars)
2.425786643969478064e+03 9.999999999999999547e-07
2.459445391640487287e+03 1.778279410038922901e-06
2.493104139311496965e+03 3.162277660168379191e-06
2.523111812127869598e+03 5.623413251903491208e-06
2.554232538723589641e+03 1.000000000000000082e-05
2.587655336454045027e+03 1.778279410038922901e-05
2.622429596446199866e+03 3.162277660168379530e-05
2.658821396030200958e+03 5.623413251903490700e-05
2.696037114319076863e+03 1.000000000000000048e-04
2.733294659835687526e+03 1.778279410038922698e-04
2.769002228126511000e+03 3.162277660168379394e-04
2.800530174975133377e+03 5.623413251903490971e-04
2.825909984682692539e+03 1.000000000000000021e-03
2.847231720273972769e+03 1.778279410038922752e-03
2.872179364929197618e+03 3.162277660168379394e-03
2.910622938244165198e+03 5.623413251903490971e-03
2.967878585093706533e+03 1.000000000000000021e-02
3.046417999263730508e+03 1.778279410038922925e-02
3.143476072254997234e+03 3.162277660168379134e-02
3.263895565816065755e+03 5.623413251903491145e-02
3.424055654963209236e+03 1.000000000000000056e-01
3.625646277391227613e+03 1.778279410038922925e-01
3.882154958356793941e+03 3.162277660168379412e-01
4.164569238812726326e+03 5.623413251903490728e-01
4.533853689896320247e+03 1.000000000000000000e+00
5.072865299438781221e+03 1.778279410038922759e+00
5.951311145576853960e+03 3.162277660168379523e+00
7.299646170540858293e+03 5.623413251903491172e+00
8.977225526200891181e+03 1.000000000000000000e+01
1.083307150748533786e+04 1.778279410038922848e+01
1.303546335150254163e+04 3.162277660168379256e+01
1.579746292010641082e+04 5.623413251903490817e+01
1.922324308146162366e+04 1.000000000000000000e+02
2.340436347337723055e+04 1.778279410038922776e+02
2.839361385306110969e+04 3.162277660168379612e+02
