# Temperature (K), Pressure (bars)
8.199545191020696393e+02 3.162277660168379394e-04
8.714687460713906830e+02 5.623413251903490971e-04
9.229829740937252609e+02 1.000000000000000021e-03
9.724557628124712210e+02 1.778279410038922752e-03
1.021889580927778638e+03 3.162277660168379394e-03
1.074116481278553692e+03 5.623413251903490971e-03
1.132903605978834321e+03 1.000000000000000021e-02
1.201751796123572603e+03 1.778279410038922925e-02
1.288230283822590309e+03 3.162277660168379134e-02
1.397560981133090991e+03 5.623413251903491145e-02
1.558914916075477095e+03 1.000000000000000056e-01
1.796603732296092403e+03 1.778279410038922925e-01
2.063759991810177326e+03 3.162277660168379412e-01
2.320819017767442801e+03 5.623413251903490728e-01
2.565003372657631189e+03 1.000000000000000000e+00
2.795277044161813137e+03 1.778279410038922759e+00
3.018291731297194019e+03 3.162277660168379523e+00
3.241696970091717503e+03 5.623413251903491172e+00
3.472412811915088241e+03 1.000000000000000000e+01
3.716694130595286879e+03 1.778279410038922848e+01
3.982838042106982357e+03 3.162277660168379256e+01
4.275111605766061075e+03 5.623413251903490817e+01
4.600349476069311095e+03 1.000000000000000000e+02
4.961980951870181343e+03 1.778279410038922776e+02
5.379936634140745809e+03 3.162277660168379612e+02
