# Temperature (K), Pressure (bars)
8.409241798416853726e+02 1.000000000000000082e-05
8.812586114952772505e+02 1.778279410038922901e-05
9.215930465866517807e+02 3.162277660168379530e-05
9.676756288829626556e+02 5.623413251903490700e-05
1.018407020765131165e+03 1.000000000000000048e-04
1.069893649313384003e+03 1.778279410038922698e-04
1.117959837131431186e+03 3.162277660168379394e-04
1.158859649998980331e+03 5.623413251903490971e-04
1.192847072122020563e+03 1.000000000000000021e-03
1.223966651109295299e+03 1.778279410038922752e-03
1.256238913947676565e+03 3.162277660168379394e-03
1.287033471075621037e+03 5.623413251903490971e-03
1.322841732139272153e+03 1.000000000000000021e-02
1.390029503739596066e+03 1.778279410038922925e-02
1.496621815132109532e+03 3.162277660168379134e-02
1.626348263007628248e+03 5.623413251903491145e-02
1.757067482598556580e+03 1.000000000000000056e-01
1.885965756548497211e+03 1.778279410038922925e-01
2.015764656025165095e+03 3.162277660168379412e-01
2.181585357260055389e+03 5.623413251903490728e-01
2.425096759393564753e+03 1.000000000000000000e+00
2.685644146594715949e+03 1.778279410038922759e+00
2.921180922320860645e+03 3.162277660168379523e+00
3.153388383493908350e+03 5.623413251903491172e+00
3.389789235392623596e+03 1.000000000000000000e+01
3.636779182398624471e+03 1.778279410038922848e+01
3.902402782869648036e+03 3.162277660168379256e+01
4.192186904618482913e+03 5.623413251903490817e+01
4.512950808074788256e+03 1.000000000000000000e+02
4.867637700498905360e+03 1.778279410038922776e+02
5.276112772353266337e+03 3.162277660168379612e+02
