# Temperature (K), Pressure (bars)
1.499409959338774797e+03 9.999999999999999547e-07
1.603134681789107162e+03 1.778279410038922901e-06
1.706859404242701203e+03 3.162277660168379191e-06
1.792460757636400331e+03 5.623413251903491208e-06
1.857519828228196502e+03 1.000000000000000082e-05
1.909075355628555826e+03 1.778279410038922901e-05
1.952502935751388122e+03 3.162277660168379530e-05
1.992206958733983356e+03 5.623413251903490700e-05
2.031845095658393348e+03 1.000000000000000048e-04
2.073529873016671445e+03 1.778279410038922698e-04
2.119358691959427233e+03 3.162277660168379394e-04
2.171410045850844654e+03 5.623413251903490971e-04
2.231368034450930736e+03 1.000000000000000021e-03
2.300886526512672390e+03 1.778279410038922752e-03
2.379544915199361640e+03 3.162277660168379394e-03
2.468369926685452810e+03 5.623413251903490971e-03
2.572183426726859580e+03 1.000000000000000021e-02
2.691847921774739007e+03 1.778279410038922925e-02
2.826883963091751411e+03 3.162277660168379134e-02
2.979456228354460563e+03 5.623413251903491145e-02
3.150952151429171863e+03 1.000000000000000056e-01
3.340937453458256641e+03 1.778279410038922925e-01
3.548825004772262218e+03 3.162277660168379412e-01
3.777001876580744465e+03 5.623413251903490728e-01
4.032920433770973432e+03 1.000000000000000000e+00
4.330058612966764485e+03 1.778279410038922759e+00
4.673251309298166234e+03 3.162277660168379523e+00
5.112295101497213182e+03 5.623413251903491172e+00
5.709513612044619549e+03 1.000000000000000000e+01
6.569538298723541629e+03 1.778279410038922848e+01
7.856500277927581010e+03 3.162277660168379256e+01
9.607941016158556522e+03 5.623413251903490817e+01
1.170732612537981367e+04 1.000000000000000000e+02
1.424830291446497358e+04 1.778279410038922776e+02
1.727652495881199866e+04 3.162277660168379612e+02
