# Temperature (K), Pressure (bars)
9.179623186181431720e+02 3.162277660168379530e-05
9.542218520324437350e+02 5.623413251903490700e-05
9.904813874523882760e+02 1.000000000000000048e-04
1.031776473561937564e+03 1.778279410038922698e-04
1.077257090983013541e+03 3.162277660168379394e-04
1.122454882163955972e+03 5.623413251903490971e-04
1.163599250549852059e+03 1.000000000000000021e-03
1.199798348762790056e+03 1.778279410038922752e-03
1.232769122457705635e+03 3.162277660168379394e-03
1.263804255042402247e+03 5.623413251903490971e-03
1.293184836289353598e+03 1.000000000000000021e-02
1.322073130014068511e+03 1.778279410038922925e-02
1.352656000230230802e+03 3.162277660168379134e-02
1.398113668495577485e+03 5.623413251903491145e-02
1.468595699894863401e+03 1.000000000000000056e-01
1.564354941260994337e+03 1.778279410038922925e-01
1.682729004952666628e+03 3.162277660168379412e-01
1.814792548864672199e+03 5.623413251903490728e-01
1.946189798809913327e+03 1.000000000000000000e+00
2.112971428699680473e+03 1.778279410038922759e+00
2.366980084783141137e+03 3.162277660168379523e+00
2.655454479073660423e+03 5.623413251903491172e+00
2.928464486559909801e+03 1.000000000000000000e+01
3.198036193656317209e+03 1.778279410038922848e+01
3.472787444775312451e+03 3.162277660168379256e+01
3.759978893284367587e+03 5.623413251903490817e+01
4.067116839598462320e+03 1.000000000000000000e+02
4.398097163372552131e+03 1.778279410038922776e+02
4.768788218024233174e+03 3.162277660168379612e+02
