# Temperature (K), Pressure (bars)
2.025396315132791642e+03 9.999999999999999547e-07
2.062694927638963236e+03 1.778279410038922901e-06
2.099993540145243514e+03 3.162277660168379191e-06
2.141431170916137489e+03 5.623413251903491208e-06
2.186520897267038890e+03 1.000000000000000082e-05
2.232250705930739969e+03 1.778279410038922901e-05
2.276717699913784600e+03 3.162277660168379530e-05
2.319173559210139047e+03 5.623413251903490700e-05
2.358564840083726722e+03 1.000000000000000048e-04
2.394867862604045513e+03 1.778279410038922698e-04
2.429715847014928386e+03 3.162277660168379394e-04
2.465708176646058746e+03 5.623413251903490971e-04
2.505597336227184314e+03 1.000000000000000021e-03
2.552603315098705934e+03 1.778279410038922752e-03
2.605969806604775385e+03 3.162277660168379394e-03
2.663487418399711714e+03 5.623413251903490971e-03
2.712749846325729777e+03 1.000000000000000021e-02
2.770872604330059403e+03 1.778279410038922925e-02
2.880933326028648935e+03 3.162277660168379134e-02
3.027492061979331083e+03 5.623413251903491145e-02
3.190000021967274279e+03 1.000000000000000056e-01
3.377118051065020154e+03 1.778279410038922925e-01
3.589776083200234552e+03 3.162277660168379412e-01
3.830028683058169008e+03 5.623413251903490728e-01
4.107259701304478767e+03 1.000000000000000000e+00
4.405790279486993313e+03 1.778279410038922759e+00
4.778602536722450168e+03 3.162277660168379523e+00
5.275419525942127621e+03 5.623413251903491172e+00
6.000477334673168116e+03 1.000000000000000000e+01
7.131326112611109238e+03 1.778279410038922848e+01
8.731033500384164654e+03 3.162277660168379256e+01
1.066351685001345868e+04 5.623413251903490817e+01
1.297593615229900024e+04 1.000000000000000000e+02
1.579829627664741383e+04 1.778279410038922776e+02
1.916587143271247623e+04 3.162277660168379612e+02
