# Temperature (K), Pressure (bars)
7.786911513099059903e+02 3.162277660168379394e-04
8.248049468336444079e+02 5.623413251903490971e-04
8.709187434608350031e+02 1.000000000000000021e-03
9.164761330167203823e+02 1.778279410038922752e-03
9.616066344430297477e+02 3.162277660168379394e-03
1.007452668536269357e+03 5.623413251903490971e-03
1.055503277865551354e+03 1.000000000000000021e-02
1.109057393235775862e+03 1.778279410038922925e-02
1.171955562588740349e+03 3.162277660168379134e-02
1.250927177174342205e+03 5.623413251903491145e-02
1.351207157134682120e+03 1.000000000000000056e-01
1.496061599422884456e+03 1.778279410038922925e-01
1.711336222903716362e+03 3.162277660168379412e-01
1.971335661647311326e+03 5.623413251903490728e-01
2.240642106552884343e+03 1.000000000000000000e+00
2.505025731837693911e+03 1.778279410038922759e+00
2.757815161885222551e+03 3.162277660168379523e+00
3.002379890175927812e+03 5.623413251903491172e+00
3.245721193247257816e+03 1.000000000000000000e+01
3.495500993780485715e+03 1.778279410038922848e+01
3.760842842904896315e+03 3.162277660168379256e+01
4.046908777123829168e+03 5.623413251903490817e+01
4.360431194507164037e+03 1.000000000000000000e+02
4.704558225718120411e+03 1.778279410038922776e+02
5.097213412089429767e+03 3.162277660168379612e+02
