# Temperature (K), Pressure (bars)
2.160933290420761750e+03 9.999999999999999547e-07
2.175987198832040121e+03 1.778279410038922901e-06
2.191041107243318038e+03 3.162277660168379191e-06
2.217525417027268759e+03 5.623413251903491208e-06
2.249654587476411962e+03 1.000000000000000082e-05
2.284577260875511001e+03 1.778279410038922901e-05
2.324421791277979992e+03 3.162277660168379530e-05
2.368069012659523651e+03 5.623413251903490700e-05
2.413708826634399429e+03 1.000000000000000048e-04
2.459520834223138991e+03 1.778279410038922698e-04
2.503143378382458650e+03 3.162277660168379394e-04
2.542701216133622438e+03 5.623413251903490971e-04
2.577979885852962980e+03 1.000000000000000021e-03
2.610000260835332028e+03 1.778279410038922752e-03
2.641122553100553432e+03 3.162277660168379394e-03
2.674697387070938930e+03 5.623413251903490971e-03
2.716569946375569089e+03 1.000000000000000021e-02
2.768939926293584904e+03 1.778279410038922925e-02
2.838911325516551187e+03 3.162277660168379134e-02
2.942837845344051402e+03 5.623413251903491145e-02
3.077920855938902150e+03 1.000000000000000056e-01
3.233063188744827130e+03 1.778279410038922925e-01
3.409088058877554886e+03 3.162277660168379412e-01
3.608907517047994133e+03 5.623413251903490728e-01
3.834428068195729793e+03 1.000000000000000000e+00
4.088960999762327447e+03 1.778279410038922759e+00
4.380353439430062281e+03 3.162277660168379523e+00
4.710148599250810548e+03 5.623413251903491172e+00
5.114225372765757129e+03 1.000000000000000000e+01
5.631752534387247579e+03 1.778279410038922848e+01
6.335957018852509464e+03 3.162277660168379256e+01
7.362070154000010916e+03 5.623413251903490817e+01
8.856679246924340987e+03 1.000000000000000000e+02
1.000000000000000000e+04 1.778279410038922776e+02
1.000000000000000000e+04 3.162277660168379612e+02
