# Temperature (K), Pressure (bars)
2.199980106016453192e+03 9.999999999999999547e-07
2.216502367951854467e+03 1.778279410038922901e-06
2.233024629887255742e+03 3.162277660168379191e-06
2.250151073345348323e+03 5.623413251903491208e-06
2.263497981128791707e+03 1.000000000000000082e-05
2.269940377792914205e+03 1.778279410038922901e-05
2.273574685540727387e+03 3.162277660168379530e-05
2.283147980108553838e+03 5.623413251903490700e-05
2.304038296227380670e+03 1.000000000000000048e-04
2.335865172437273031e+03 1.778279410038922698e-04
2.376764631731664394e+03 3.162277660168379394e-04
2.425831979466390749e+03 5.623413251903490971e-04
2.483458469127836452e+03 1.000000000000000021e-03
2.550870508969469029e+03 1.778279410038922752e-03
2.631302934072396511e+03 3.162277660168379394e-03
2.728507892271426954e+03 5.623413251903490971e-03
2.841471497174698015e+03 1.000000000000000021e-02
2.967939914820770355e+03 1.778279410038922925e-02
3.109704569132706183e+03 3.162277660168379134e-02
3.272191792698984500e+03 5.623413251903491145e-02
3.466112415942610824e+03 1.000000000000000056e-01
3.680031105857899092e+03 1.778279410038922925e-01
3.942540797612683491e+03 3.162277660168379412e-01
4.250324713849403452e+03 5.623413251903490728e-01
4.673393781748739457e+03 1.000000000000000000e+00
5.333292199351507406e+03 1.778279410038922759e+00
6.402160057694767602e+03 3.162277660168379523e+00
7.911492890630442162e+03 5.623413251903491172e+00
9.627962640450348772e+03 1.000000000000000000e+01
1.000000000000000000e+04 1.778279410038922848e+01
1.000000000000000000e+04 3.162277660168379256e+01
1.000000000000000000e+04 5.623413251903490817e+01
1.000000000000000000e+04 1.000000000000000000e+02
1.000000000000000000e+04 1.778279410038922776e+02
1.000000000000000000e+04 3.162277660168379612e+02
