# Temperature (K), Pressure (bars)
1.667726960393626314e+03 9.999999999999999547e-07
1.754369317943172291e+03 1.778279410038922901e-06
1.841011675494296469e+03 3.162277660168379191e-06
1.903701336316626794e+03 5.623413251903491208e-06
1.957040018553826485e+03 1.000000000000000082e-05
2.009565129166460110e+03 1.778279410038922901e-05
2.056756274367550759e+03 3.162277660168379530e-05
2.097688151010641377e+03 5.623413251903490700e-05
2.133576066763190283e+03 1.000000000000000048e-04
2.166546981940476599e+03 1.778279410038922698e-04
2.197947808120845366e+03 3.162277660168379394e-04
2.229176118190925990e+03 5.623413251903490971e-04
2.262508852670577653e+03 1.000000000000000021e-03
2.299611246997613762e+03 1.778279410038922752e-03
2.343461047775592760e+03 3.162277660168379394e-03
2.394948803242626127e+03 5.623413251903490971e-03
2.462098091110830410e+03 1.000000000000000021e-02
2.559624434816395933e+03 1.778279410038922925e-02
2.681347980361827467e+03 3.162277660168379134e-02
2.816104049443547410e+03 5.623413251903491145e-02
2.965050570732727465e+03 1.000000000000000056e-01
3.130180296662605997e+03 1.778279410038922925e-01
3.311621884331421825e+03 3.162277660168379412e-01
3.508284356790724814e+03 5.623413251903490728e-01
3.720862052633062376e+03 1.000000000000000000e+00
3.953362631134336880e+03 1.778279410038922759e+00
4.212766935278934398e+03 3.162277660168379523e+00
4.508888843659734448e+03 5.623413251903491172e+00
4.852595787146050498e+03 1.000000000000000000e+01
5.269221689335920018e+03 1.778279410038922848e+01
5.793604112607735260e+03 3.162277660168379256e+01
6.487532969235456221e+03 5.623413251903490817e+01
7.462607056771540556e+03 1.000000000000000000e+02
8.864458217296602015e+03 1.778279410038922776e+02
1.070169105786750879e+04 3.162277660168379612e+02
