# Temperature (K), Pressure (bars)
1.325660468583314696e+03 5.623413251903490700e-05
1.360028820279923593e+03 1.000000000000000048e-04
1.394397174649712724e+03 1.778279410038922698e-04
1.438166903244801460e+03 3.162277660168379394e-04
1.515908493778034199e+03 5.623413251903490971e-04
1.595763717636624733e+03 1.000000000000000021e-03
1.650683911918282774e+03 1.778279410038922752e-03
1.696606375862345658e+03 3.162277660168379394e-03
1.741592539710244637e+03 5.623413251903490971e-03
1.785842670377701552e+03 1.000000000000000021e-02
1.833077355558800946e+03 1.778279410038922925e-02
1.883402988019426175e+03 3.162277660168379134e-02
1.936014925748904943e+03 5.623413251903491145e-02
1.995614418324094913e+03 1.000000000000000056e-01
2.066137930335954024e+03 1.778279410038922925e-01
2.155404860795349578e+03 3.162277660168379412e-01
2.263788433736265233e+03 5.623413251903490728e-01
2.421464805509036523e+03 1.000000000000000000e+00
2.656444276553007512e+03 1.778279410038922759e+00
2.907554241637667928e+03 3.162277660168379523e+00
3.140861465718615818e+03 5.623413251903491172e+00
3.378152203748838929e+03 1.000000000000000000e+01
3.626269915569756449e+03 1.778279410038922848e+01
3.892135071583261379e+03 3.162277660168379256e+01
4.181838601416857273e+03 5.623413251903490817e+01
4.502264446717151259e+03 1.000000000000000000e+02
4.856655653670884931e+03 1.778279410038922776e+02
5.264244806165109367e+03 3.162277660168379612e+02
