# Temperature (K), Pressure (bars)
2.203579250040795159e+03 9.999999999999999547e-07
2.223692460526499417e+03 1.778279410038922901e-06
2.243805671017886198e+03 3.162277660168379191e-06
2.266945911645701926e+03 5.623413251903491208e-06
2.291790921404513938e+03 1.000000000000000082e-05
2.318664992815491587e+03 1.778279410038922901e-05
2.346835585314503987e+03 3.162277660168379530e-05
2.374062705102809559e+03 5.623413251903490700e-05
2.398484977433919994e+03 1.000000000000000048e-04
2.419395981673365895e+03 1.778279410038922698e-04
2.438933781050355719e+03 3.162277660168379394e-04
2.460678795318489392e+03 5.623413251903490971e-04
2.487819977437927719e+03 1.000000000000000021e-03
2.522788685793526383e+03 1.778279410038922752e-03
2.567186071336364876e+03 3.162277660168379394e-03
2.623272547359973942e+03 5.623413251903490971e-03
2.691649187432572489e+03 1.000000000000000021e-02
2.775988736467579201e+03 1.778279410038922925e-02
2.884005259964365905e+03 3.162277660168379134e-02
3.013346211476015014e+03 5.623413251903491145e-02
3.159567447984472437e+03 1.000000000000000056e-01
3.325542492657274124e+03 1.778279410038922925e-01
3.515424892136410563e+03 3.162277660168379412e-01
3.732906966508764526e+03 5.623413251903490728e-01
3.981853880957695765e+03 1.000000000000000000e+00
4.271238298486990971e+03 1.778279410038922759e+00
4.594343420389154744e+03 3.162277660168379523e+00
4.998899931425665272e+03 5.623413251903491172e+00
5.537549209206368687e+03 1.000000000000000000e+01
6.316562837444874276e+03 1.778279410038922848e+01
7.507479155058525066e+03 3.162277660168379256e+01
9.168470703391285497e+03 5.623413251903490817e+01
1.119157401210729950e+04 1.000000000000000000e+02
1.362546339711316796e+04 1.778279410038922776e+02
1.652980316602837775e+04 3.162277660168379612e+02
