# Temperature (K), Pressure (bars)
2.229648547458175926e+03 9.999999999999999547e-07
2.240903056538261353e+03 1.778279410038922901e-06
2.252157565618346780e+03 3.162277660168379191e-06
2.277587541364189292e+03 5.623413251903491208e-06
2.311137057132275004e+03 1.000000000000000082e-05
2.348931513290044222e+03 1.778279410038922901e-05
2.392526897764860678e+03 3.162277660168379530e-05
2.441031257629704669e+03 5.623413251903490700e-05
2.493309962891008581e+03 1.000000000000000048e-04
2.547307008211826997e+03 1.778279410038922698e-04
2.601109307228446596e+03 3.162277660168379394e-04
2.653329392076262138e+03 5.623413251903490971e-04
2.701960852514103863e+03 1.000000000000000021e-03
2.744961060214272038e+03 1.778279410038922752e-03
2.782860140167506870e+03 3.162277660168379394e-03
2.819776319344184685e+03 5.623413251903490971e-03
2.863526844338580759e+03 1.000000000000000021e-02
2.918402091153306174e+03 1.778279410038922925e-02
2.991015175217547949e+03 3.162277660168379134e-02
3.098357095940541058e+03 5.623413251903491145e-02
3.242808744211866269e+03 1.000000000000000056e-01
3.415082787994007049e+03 1.778279410038922925e-01
3.617011105116352155e+03 3.162277660168379412e-01
3.856245985405950250e+03 5.623413251903490728e-01
4.145410054861332355e+03 1.000000000000000000e+00
4.456816319294133791e+03 1.778279410038922759e+00
4.852684544945085690e+03 3.162277660168379523e+00
5.394560326579208777e+03 5.623413251903491172e+00
6.205845946029594415e+03 1.000000000000000000e+01
7.463896256216456095e+03 1.778279410038922848e+01
9.159797267901767555e+03 3.162277660168379256e+01
1.000000000000000000e+04 5.623413251903490817e+01
1.000000000000000000e+04 1.000000000000000000e+02
1.000000000000000000e+04 1.778279410038922776e+02
1.000000000000000000e+04 3.162277660168379612e+02
