# Temperature (K), Pressure (bars)
1.049365449490857372e+03 3.162277660168379394e-04
1.110768752028993958e+03 5.623413251903490971e-04
1.172172051081608288e+03 1.000000000000000021e-03
1.222970659347688525e+03 1.778279410038922752e-03
1.262703928085749340e+03 3.162277660168379394e-03
1.299017139796274023e+03 5.623413251903490971e-03
1.334494810916779443e+03 1.000000000000000021e-02
1.383306082646612822e+03 1.778279410038922925e-02
1.472975008687370064e+03 3.162277660168379134e-02
1.606501356445683314e+03 5.623413251903491145e-02
1.760368901096864647e+03 1.000000000000000056e-01
1.908583352138503415e+03 1.778279410038922925e-01
2.041060817047228966e+03 3.162277660168379412e-01
2.192005228378265656e+03 5.623413251903490728e-01
2.403148928100076773e+03 1.000000000000000000e+00
2.645251820536768264e+03 1.778279410038922759e+00
2.881904226448914415e+03 3.162277660168379523e+00
3.116542332346702096e+03 5.623413251903491172e+00
3.354928681601893004e+03 1.000000000000000000e+01
3.603018131941303636e+03 1.778279410038922848e+01
3.868543733435798003e+03 3.162277660168379256e+01
4.157382455570290404e+03 5.623413251903490817e+01
4.476336998936821146e+03 1.000000000000000000e+02
4.828489673228980791e+03 1.778279410038922776e+02
5.232824998344677624e+03 3.162277660168379612e+02
