# Temperature (K), Pressure (bars)
9.261267833500960478e+02 3.162277660168379394e-03
9.687204428416351902e+02 5.623413251903490971e-03
1.011314103562564128e+03 1.000000000000000021e-02
1.052542201693496963e+03 1.778279410038922925e-02
1.093500541951874084e+03 3.162277660168379134e-02
1.135333363596126219e+03 5.623413251903491145e-02
1.179539926868306793e+03 1.000000000000000056e-01
1.228453591275595045e+03 1.778279410038922925e-01
1.285401805711196857e+03 3.162277660168379412e-01
1.354673759683652406e+03 5.623413251903490728e-01
1.447124256646611229e+03 1.000000000000000000e+00
1.581916959176837508e+03 1.778279410038922759e+00
1.763342458148089918e+03 3.162277660168379523e+00
1.999624013487599996e+03 5.623413251903491172e+00
2.294361208070203247e+03 1.000000000000000000e+01
2.607330316720763676e+03 1.778279410038922848e+01
2.917934689623950362e+03 3.162277660168379256e+01
3.229615183148585402e+03 5.623413251903490817e+01
3.547296179915210814e+03 1.000000000000000000e+02
3.876106589132112731e+03 1.778279410038922776e+02
4.229845858650512127e+03 3.162277660168379612e+02
