# Temperature (K), Pressure (bars)
8.341648779587984563e+02 5.623413251903490971e-04
8.690610723823230046e+02 1.000000000000000021e-03
9.039572674772695109e+02 1.778279410038922752e-03
9.384273895958822322e+02 3.162277660168379394e-03
9.741183238631485892e+02 5.623413251903490971e-03
1.011988066421977464e+03 1.000000000000000021e-02
1.051136283975101151e+03 1.778279410038922925e-02
1.091757486263450801e+03 3.162277660168379134e-02
1.136504737593712207e+03 5.623413251903491145e-02
1.187751668957991569e+03 1.000000000000000056e-01
1.252073828931101389e+03 1.778279410038922925e-01
1.329770960339569456e+03 3.162277660168379412e-01
1.451506619439305723e+03 5.623413251903490728e-01
1.660244602332241129e+03 1.000000000000000000e+00
1.923536761410938652e+03 1.778279410038922759e+00
2.202872890840914351e+03 3.162277660168379523e+00
2.490638383871318183e+03 5.623413251903491172e+00
2.775541170124162363e+03 1.000000000000000000e+01
3.055779521136924359e+03 1.778279410038922848e+01
3.338156001072275558e+03 3.162277660168379256e+01
3.628960926510426361e+03 5.623413251903490817e+01
3.936048712795623032e+03 1.000000000000000000e+02
4.263969703179272074e+03 1.778279410038922776e+02
4.627738760058401567e+03 3.162277660168379612e+02
