# Temperature (K), Pressure (bars)
1.753626213441831396e+03 9.999999999999999547e-07
1.760584250783912466e+03 1.778279410038922901e-06
1.767542288133951388e+03 3.162277660168379191e-06
1.776953336543205069e+03 5.623413251903491208e-06
1.791286584920907671e+03 1.000000000000000082e-05
1.812862642347622568e+03 1.778279410038922901e-05
1.840286423417175683e+03 3.162277660168379530e-05
1.872889900679102539e+03 5.623413251903490700e-05
1.912409194916936713e+03 1.000000000000000048e-04
1.957997809809610771e+03 1.778279410038922698e-04
2.008941051154413572e+03 3.162277660168379394e-04
2.064818171783948856e+03 5.623413251903490971e-04
2.126134116386454025e+03 1.000000000000000021e-03
2.192473725289714366e+03 1.778279410038922752e-03
2.269439840867109524e+03 3.162277660168379394e-03
2.367703221295650110e+03 5.623413251903490971e-03
2.481775429095977415e+03 1.000000000000000021e-02
2.603242045365763261e+03 1.778279410038922925e-02
2.732919188501360622e+03 3.162277660168379134e-02
2.872140879949945884e+03 5.623413251903491145e-02
3.022767722557174238e+03 1.000000000000000056e-01
3.187260646113793428e+03 1.778279410038922925e-01
3.368173835927425898e+03 3.162277660168379412e-01
3.567238028057713564e+03 5.623413251903490728e-01
3.786088984805417113e+03 1.000000000000000000e+00
4.028708403418752368e+03 1.778279410038922759e+00
4.302862631037515712e+03 3.162277660168379523e+00
4.620756844481883491e+03 5.623413251903491172e+00
4.995966782816285559e+03 1.000000000000000000e+01
5.464855899010184658e+03 1.778279410038922848e+01
6.082353562208536459e+03 3.162277660168379256e+01
6.951458354074514318e+03 5.623413251903490817e+01
8.221908201956532139e+03 1.000000000000000000e+02
9.968104537051754960e+03 1.778279410038922776e+02
1.209331513556475147e+04 3.162277660168379612e+02
