# Temperature (K), Pressure (bars)
2.240788550591974854e+03 9.999999999999999547e-07
2.257084842512557771e+03 1.778279410038922901e-06
2.273381134433140687e+03 3.162277660168379191e-06
2.303693753611349166e+03 5.623413251903491208e-06
2.341453921634033577e+03 1.000000000000000082e-05
2.382835386282429226e+03 1.778279410038922901e-05
2.428115993584395255e+03 3.162277660168379530e-05
2.475786323658869151e+03 5.623413251903490700e-05
2.523729389070450907e+03 1.000000000000000048e-04
2.569384722025653900e+03 1.778279410038922698e-04
2.611791824915174402e+03 3.162277660168379394e-04
2.650352669931746732e+03 5.623413251903490971e-04
2.685562231889932718e+03 1.000000000000000021e-03
2.719766896967244065e+03 1.778279410038922752e-03
2.757122466126784730e+03 3.162277660168379394e-03
2.800978057662427091e+03 5.623413251903490971e-03
2.856413277851685052e+03 1.000000000000000021e-02
2.923667392659778216e+03 1.778279410038922925e-02
3.013590769522287701e+03 3.162277660168379134e-02
3.145382639554024991e+03 5.623413251903491145e-02
3.307996680113816183e+03 1.000000000000000056e-01
3.495357517769572041e+03 1.778279410038922925e-01
3.700587729365043742e+03 3.162277660168379412e-01
3.941936531993405879e+03 5.623413251903490728e-01
4.231803690845375058e+03 1.000000000000000000e+00
4.575998119150467573e+03 1.778279410038922759e+00
5.033206769849732154e+03 3.162277660168379523e+00
5.688940070742184616e+03 5.623413251903491172e+00
6.666869915658057835e+03 1.000000000000000000e+01
8.122630439294892312e+03 1.778279410038922848e+01
9.926235332685138928e+03 3.162277660168379256e+01
1.000000000000000000e+04 5.623413251903490817e+01
1.000000000000000000e+04 1.000000000000000000e+02
1.000000000000000000e+04 1.778279410038922776e+02
1.000000000000000000e+04 3.162277660168379612e+02
