# Temperature (K), Pressure (bars)
1.030091163791005783e+03 9.999999999999999547e-07
1.039082969421640428e+03 1.778279410038922901e-06
1.048074775065622816e+03 3.162277660168379191e-06
1.062659834733646676e+03 5.623413251903491208e-06
1.084157138358581733e+03 1.000000000000000082e-05
1.112448691673179610e+03 1.778279410038922901e-05
1.145568596464301891e+03 3.162277660168379530e-05
1.182845343090168171e+03 5.623413251903490700e-05
1.225090806074530065e+03 1.000000000000000048e-04
1.272105471121967867e+03 1.778279410038922698e-04
1.325026924130623684e+03 3.162277660168379394e-04
1.387481256144375266e+03 5.623413251903490971e-04
1.457732452146177366e+03 1.000000000000000021e-03
1.534324993190286932e+03 1.778279410038922752e-03
1.624016313967567385e+03 3.162277660168379394e-03
1.720578616180067002e+03 5.623413251903490971e-03
1.819588431900016531e+03 1.000000000000000021e-02
1.923046560717423745e+03 1.778279410038922925e-02
2.056664756301800480e+03 3.162277660168379134e-02
2.244686721490188575e+03 5.623413251903491145e-02
2.442738698461478634e+03 1.000000000000000056e-01
2.623573909744422508e+03 1.778279410038922925e-01
2.802187939876621840e+03 3.162277660168379412e-01
2.983433452260322611e+03 5.623413251903490728e-01
3.170035565957086874e+03 1.000000000000000000e+00
3.364313051543329493e+03 1.778279410038922759e+00
3.569649408880212832e+03 3.162277660168379523e+00
3.790494382873108862e+03 5.623413251903491172e+00
4.031873501455047062e+03 1.000000000000000000e+01
4.299496651434763407e+03 1.778279410038922848e+01
4.600284354614914264e+03 3.162277660168379256e+01
4.943535263185402073e+03 5.623413251903490817e+01
5.345904967646794830e+03 1.000000000000000000e+02
5.819944731915759803e+03 1.778279410038922776e+02
6.389004242847317983e+03 3.162277660168379612e+02
