# Temperature (K), Pressure (bars)
1.879354882681949448e+03 9.999999999999999547e-07
1.894549860635073856e+03 1.778279410038922901e-06
1.909744838588197808e+03 3.162277660168379191e-06
1.929044180819193116e+03 5.623413251903491208e-06
1.953761318606332679e+03 1.000000000000000082e-05
1.984791032933596398e+03 1.778279410038922901e-05
2.023359608858712818e+03 3.162277660168379530e-05
2.068244966034372737e+03 5.623413251903490700e-05
2.118039522366995698e+03 1.000000000000000048e-04
2.172695189958560604e+03 1.778279410038922698e-04
2.232813101311945957e+03 3.162277660168379394e-04
2.299868915513939100e+03 5.623413251903490971e-04
2.375678973938202034e+03 1.000000000000000021e-03
2.462000957863295753e+03 1.778279410038922752e-03
2.558709356563247638e+03 3.162277660168379394e-03
2.664485372977213501e+03 5.623413251903490971e-03
2.779706024496822010e+03 1.000000000000000021e-02
2.906584777269986262e+03 1.778279410038922925e-02
3.048488577578027162e+03 3.162277660168379134e-02
3.210214830405207522e+03 5.623413251903491145e-02
3.401136129215960409e+03 1.000000000000000056e-01
3.602341021523903692e+03 1.778279410038922925e-01
3.840315597965298366e+03 3.162277660168379412e-01
4.105906154137569501e+03 5.623413251903490728e-01
4.442365187762334244e+03 1.000000000000000000e+00
4.907963569702475979e+03 1.778279410038922759e+00
5.636242612577878390e+03 3.162277660168379523e+00
6.811286191625450556e+03 5.623413251903491172e+00
8.401995660791426417e+03 1.000000000000000000e+01
1.000000000000000000e+04 1.778279410038922848e+01
1.000000000000000000e+04 3.162277660168379256e+01
1.000000000000000000e+04 5.623413251903490817e+01
1.000000000000000000e+04 1.000000000000000000e+02
1.000000000000000000e+04 1.778279410038922776e+02
1.000000000000000000e+04 3.162277660168379612e+02
