# Temperature (K), Pressure (bars)
9.452117358981829511e+02 3.162277660168379394e-03
9.924881751265510275e+02 5.623413251903490971e-03
1.039764615457492255e+03 1.000000000000000021e-02
1.085549470801554435e+03 1.778279410038922925e-02
1.130801486183476300e+03 3.162277660168379134e-02
1.177443120112830911e+03 5.623413251903491145e-02
1.227697124911947867e+03 1.000000000000000056e-01
1.285037257951849142e+03 1.778279410038922925e-01
1.353801171389453202e+03 3.162277660168379412e-01
1.443463638861154550e+03 5.623413251903490728e-01
1.578901151807381439e+03 1.000000000000000000e+00
1.758311391207499355e+03 1.778279410038922759e+00
1.980420761222034116e+03 3.162277660168379523e+00
2.263738075589869823e+03 5.623413251903491172e+00
2.569116697476719764e+03 1.000000000000000000e+01
2.863851007751241923e+03 1.778279410038922848e+01
3.158968812975241235e+03 3.162277660168379256e+01
3.457765650424202704e+03 5.623413251903490817e+01
3.767938618328402299e+03 1.000000000000000000e+02
4.095113286416974915e+03 1.778279410038922776e+02
4.453153486918085946e+03 3.162277660168379612e+02
