# Temperature (K), Pressure (bars)
9.107631375206054827e+02 5.623413251903490971e-04
9.495846194441787702e+02 1.000000000000000021e-03
9.884061014415373165e+02 1.778279410038922752e-03
1.026621076480292686e+03 3.162277660168379394e-03
1.066030163136537340e+03 5.623413251903490971e-03
1.107368821329023604e+03 1.000000000000000021e-02
1.149992592676434242e+03 1.778279410038922925e-02
1.194784506239119537e+03 3.162277660168379134e-02
1.242427575311680357e+03 5.623413251903491145e-02
1.297771681901128659e+03 1.000000000000000056e-01
1.372115705708380574e+03 1.778279410038922925e-01
1.482006447409646853e+03 3.162277660168379412e-01
1.629896787318890574e+03 5.623413251903490728e-01
1.827541229947904640e+03 1.000000000000000000e+00
2.091083001110054738e+03 1.778279410038922759e+00
2.379435013814360445e+03 3.162277660168379523e+00
2.657882876387890519e+03 5.623413251903491172e+00
2.929671226021607708e+03 1.000000000000000000e+01
3.198429939678533628e+03 1.778279410038922848e+01
3.472950083081779212e+03 3.162277660168379256e+01
3.759988794924103331e+03 5.623413251903490817e+01
4.067013426011541014e+03 1.000000000000000000e+02
4.397940364195802431e+03 1.778279410038922776e+02
4.768665642056070283e+03 3.162277660168379612e+02
