# Temperature (K), Pressure (bars)
1.709590900562068782e+03 1.778279410038922901e-06
1.718790418953992230e+03 3.162277660168379191e-06
1.731484196548422460e+03 5.623413251903491208e-06
1.748359051842693816e+03 1.000000000000000082e-05
1.770437444721332440e+03 1.778279410038922901e-05
1.801095558217582493e+03 3.162277660168379530e-05
1.839807057641821302e+03 5.623413251903490700e-05
1.884858606004348076e+03 1.000000000000000048e-04
1.936443869166375862e+03 1.778279410038922698e-04
1.993550240595319792e+03 3.162277660168379394e-04
2.055355095420702128e+03 5.623413251903490971e-04
2.121669858186378406e+03 1.000000000000000021e-03
2.193643400518718863e+03 1.778279410038922752e-03
2.279528827516336605e+03 3.162277660168379394e-03
2.384709154949565800e+03 5.623413251903490971e-03
2.501348713852819856e+03 1.000000000000000021e-02
2.624305742164438925e+03 1.778279410038922925e-02
2.755364730968147342e+03 3.162277660168379134e-02
2.895866039021658253e+03 5.623413251903491145e-02
3.047476244237531319e+03 1.000000000000000056e-01
3.212385880252459174e+03 1.778279410038922925e-01
3.393254703852063358e+03 3.162277660168379412e-01
3.592839159353704872e+03 5.623413251903490728e-01
3.813915501631418920e+03 1.000000000000000000e+00
4.060866653038403456e+03 1.778279410038922759e+00
4.341838704821529063e+03 3.162277660168379523e+00
4.670283808297725045e+03 5.623413251903491172e+00
5.060449913210924933e+03 1.000000000000000000e+01
5.554642066864147637e+03 1.778279410038922848e+01
6.216742192892003914e+03 3.162277660168379256e+01
7.158066716028159135e+03 5.623413251903490817e+01
8.539543947555674094e+03 1.000000000000000000e+02
1.037468286586757495e+04 1.778279410038922776e+02
1.258456750969429777e+04 3.162277660168379612e+02
