# Temperature (K), Pressure (bars)
1.412292265621164916e+03 5.623413251903490700e-05
1.432046580439586023e+03 1.000000000000000048e-04
1.451800897836340027e+03 1.778279410038922698e-04
1.477133349702745591e+03 3.162277660168379394e-04
1.514075467231856919e+03 5.623413251903490971e-04
1.567903761627243284e+03 1.000000000000000021e-03
1.634938497113437279e+03 1.778279410038922752e-03
1.698749976257264734e+03 3.162277660168379394e-03
1.755858526095959178e+03 5.623413251903490971e-03
1.815005711673427413e+03 1.000000000000000021e-02
1.877146064305211667e+03 1.778279410038922925e-02
1.942900102523153464e+03 3.162277660168379134e-02
2.015258736788714259e+03 5.623413251903491145e-02
2.101170303968980534e+03 1.000000000000000056e-01
2.202290521328424347e+03 1.778279410038922925e-01
2.339701850646069488e+03 3.162277660168379412e-01
2.535189911761140593e+03 5.623413251903490728e-01
2.749666303875762878e+03 1.000000000000000000e+00
2.956181917317460830e+03 1.778279410038922759e+00
3.166215607641266160e+03 3.162277660168379523e+00
3.384965416569826630e+03 5.623413251903491172e+00
3.616257872176347519e+03 1.000000000000000000e+01
3.864386941546631988e+03 1.778279410038922848e+01
4.136154563107295871e+03 3.162277660168379256e+01
4.437605657867957234e+03 5.623413251903490817e+01
4.776371123980135962e+03 1.000000000000000000e+02
5.156217213781019382e+03 1.778279410038922776e+02
5.599885271063688378e+03 3.162277660168379612e+02
