# Temperature (K), Pressure (bars)
1.128767397933848542e+03 3.162277660168379191e-06
1.191072011487285181e+03 5.623413251903491208e-06
1.253378491741299513e+03 1.000000000000000082e-05
1.325042072797384208e+03 1.778279410038922901e-05
1.390356043945718056e+03 3.162277660168379530e-05
1.443217471261710671e+03 5.623413251903490700e-05
1.501048376570499386e+03 1.000000000000000048e-04
1.581359668774102829e+03 1.778279410038922698e-04
1.665025187005352791e+03 3.162277660168379394e-04
1.733183759938139701e+03 5.623413251903490971e-04
1.796466549639727418e+03 1.000000000000000021e-03
1.860803150519321207e+03 1.778279410038922752e-03
1.925455374263901831e+03 3.162277660168379394e-03
1.996140242569614202e+03 5.623413251903490971e-03
2.074481576896384468e+03 1.000000000000000021e-02
2.173658259453161463e+03 1.778279410038922925e-02
2.312517938905712981e+03 3.162277660168379134e-02
2.470955951285798164e+03 5.623413251903491145e-02
2.628973327073485962e+03 1.000000000000000056e-01
2.790550342066303529e+03 1.778279410038922925e-01
2.958607647506757530e+03 3.162277660168379412e-01
3.135384567328225330e+03 5.623413251903490728e-01
3.322232118857730256e+03 1.000000000000000000e+00
3.520539087233162263e+03 1.778279410038922759e+00
3.733189522951273830e+03 3.162277660168379523e+00
3.964719850657514144e+03 5.623413251903491172e+00
4.220753256271475038e+03 1.000000000000000000e+01
4.508125447554847597e+03 1.778279410038922848e+01
4.835930618465348743e+03 3.162277660168379256e+01
5.219814391232341222e+03 5.623413251903490817e+01
5.673325537665586126e+03 1.000000000000000000e+02
6.220086539008978434e+03 1.778279410038922776e+02
6.896234838669279270e+03 3.162277660168379612e+02
