# Temperature (K), Pressure (bars)
1.036770642677548722e+03 3.162277660168379530e-05
1.079325781867077012e+03 5.623413251903490700e-05
1.121880923483716742e+03 1.000000000000000048e-04
1.165760472576123220e+03 1.778279410038922698e-04
1.213241054482846266e+03 3.162277660168379394e-04
1.264155022369443714e+03 5.623413251903490971e-04
1.317707579531605688e+03 1.000000000000000021e-03
1.374891751538222934e+03 1.778279410038922752e-03
1.437260341586099457e+03 3.162277660168379394e-03
1.507783482777759446e+03 5.623413251903490971e-03
1.587415555939675642e+03 1.000000000000000021e-02
1.685018171355376580e+03 1.778279410038922925e-02
1.808305310976999408e+03 3.162277660168379134e-02
1.958130346014573888e+03 5.623413251903491145e-02
2.145962322514815241e+03 1.000000000000000056e-01
2.356810597410722039e+03 1.778279410038922925e-01
2.561362446693368383e+03 3.162277660168379412e-01
2.757389085708607581e+03 5.623413251903490728e-01
2.951960034049359820e+03 1.000000000000000000e+00
3.149964062438953079e+03 1.778279410038922759e+00
3.355131725794313752e+03 3.162277660168379523e+00
3.571352326771861499e+03 5.623413251903491172e+00
3.803236117698280850e+03 1.000000000000000000e+01
4.056090854996810776e+03 1.778279410038922848e+01
4.337910112041226967e+03 3.162277660168379256e+01
4.654622862357404301e+03 5.623413251903490817e+01
5.014960865604225546e+03 1.000000000000000000e+02
5.423088703922043351e+03 1.778279410038922776e+02
5.907206496043512743e+03 3.162277660168379612e+02
