# Temperature (K), Pressure (bars)
1.704521765175720475e+03 9.999999999999999547e-07
1.720238690014895838e+03 1.778279410038922901e-06
1.735955614854765372e+03 3.162277660168379191e-06
1.756428924880098293e+03 5.623413251903491208e-06
1.782550939184316121e+03 1.000000000000000082e-05
1.816754310736388106e+03 1.778279410038922901e-05
1.856534864431364895e+03 3.162277660168379530e-05
1.899597295502536326e+03 5.623413251903490700e-05
1.946067074944685828e+03 1.000000000000000048e-04
1.995569308994609855e+03 1.778279410038922698e-04
2.048678439597510078e+03 3.162277660168379394e-04
2.105357744862060827e+03 5.623413251903490971e-04
2.166367496760202812e+03 1.000000000000000021e-03
2.233294226954418264e+03 1.778279410038922752e-03
2.314292132631788718e+03 3.162277660168379394e-03
2.416474644087797060e+03 5.623413251903490971e-03
2.532106849577548928e+03 1.000000000000000021e-02
2.655097613507889946e+03 1.778279410038922925e-02
2.787155018186290363e+03 3.162277660168379134e-02
2.929546326499690622e+03 5.623413251903491145e-02
3.084157889097758016e+03 1.000000000000000056e-01
3.253557433384721662e+03 1.778279410038922925e-01
3.440540314060760466e+03 3.162277660168379412e-01
3.647683058116592292e+03 5.623413251903490728e-01
3.877880431434290131e+03 1.000000000000000000e+00
4.137165515666161809e+03 1.778279410038922759e+00
4.436342910323994147e+03 3.162277660168379523e+00
4.782441513391246190e+03 5.623413251903491172e+00
5.214377722341696426e+03 1.000000000000000000e+01
5.782774636118858325e+03 1.778279410038922848e+01
6.579072781492986906e+03 3.162277660168379256e+01
7.758811230924233314e+03 5.623413251903490817e+01
9.424832397214422599e+03 1.000000000000000000e+02
1.147760184107277928e+04 1.778279410038922776e+02
1.392235024360872922e+04 3.162277660168379612e+02
