# Temperature (K), Pressure (bars)
8.935438346065118367e+02 5.623413251903490971e-04
9.322929323447949628e+02 1.000000000000000021e-03
9.710420302785448712e+02 1.778279410038922752e-03
1.011003170108741415e+03 3.162277660168379394e-03
1.052900326816162760e+03 5.623413251903490971e-03
1.096331935065835523e+03 1.000000000000000021e-02
1.141280891047245177e+03 1.778279410038922925e-02
1.188677220536313598e+03 3.162277660168379134e-02
1.241293368143565885e+03 5.623413251903491145e-02
1.301545949173808367e+03 1.000000000000000056e-01
1.381767058760357941e+03 1.778279410038922925e-01
1.517473271258413433e+03 3.162277660168379412e-01
1.730503873241805422e+03 5.623413251903490728e-01
1.995610649142024158e+03 1.000000000000000000e+00
2.273362674354892079e+03 1.778279410038922759e+00
2.546197733057729238e+03 3.162277660168379523e+00
2.811194121518530665e+03 5.623413251903491172e+00
3.070109528552986376e+03 1.000000000000000000e+01
3.329456279758583605e+03 1.778279410038922848e+01
3.598612817421227646e+03 3.162277660168379256e+01
3.883986208471376358e+03 5.623413251903490817e+01
4.192679205187097978e+03 1.000000000000000000e+02
4.528183657035694523e+03 1.778279410038922776e+02
4.907115399047931533e+03 3.162277660168379612e+02
