# Temperature (K), Pressure (bars)
1.163916646040570186e+03 1.778279410038922901e-06
1.203740016706801271e+03 3.162277660168379191e-06
1.243563466939985574e+03 5.623413251903491208e-06
1.305596249684897430e+03 1.000000000000000082e-05
1.396130123621744588e+03 1.778279410038922901e-05
1.538158246132272780e+03 3.162277660168379530e-05
1.674322295163258332e+03 5.623413251903490700e-05
1.763711070421159548e+03 1.000000000000000048e-04
1.832699490120450264e+03 1.778279410038922698e-04
1.889058991857972615e+03 3.162277660168379394e-04
1.934434073438395899e+03 5.623413251903490971e-04
1.974129666620718353e+03 1.000000000000000021e-03
2.011513545169440931e+03 1.778279410038922752e-03
2.049090773409026042e+03 3.162277660168379394e-03
2.088654166808390983e+03 5.623413251903490971e-03
2.133123884047138745e+03 1.000000000000000021e-02
2.184406608009423508e+03 1.778279410038922925e-02
2.247351068370061512e+03 3.162277660168379134e-02
2.322853015954911825e+03 5.623413251903491145e-02
2.426213845142138780e+03 1.000000000000000056e-01
2.577104396112780250e+03 1.778279410038922925e-01
2.750296562917683787e+03 3.162277660168379412e-01
2.925236928882228767e+03 5.623413251903490728e-01
3.108604138134694040e+03 1.000000000000000000e+00
3.302731946583930949e+03 1.778279410038922759e+00
3.509125425371673373e+03 3.162277660168379523e+00
3.730221265567633964e+03 5.623413251903491172e+00
3.970148491227918839e+03 1.000000000000000000e+01
4.234376775567587174e+03 1.778279410038922848e+01
4.529557648254233754e+03 3.162277660168379256e+01
4.864345960223232396e+03 5.623413251903490817e+01
5.254217087553382953e+03 1.000000000000000000e+02
5.710033731229355908e+03 1.778279410038922776e+02
6.251769120676216517e+03 3.162277660168379612e+02
