# Temperature (K), Pressure (bars)
7.288480141033487598e+02 9.999999999999999547e-07
7.541768623702423611e+02 1.778279410038922901e-06
7.795057106741726329e+02 3.162277660168379191e-06
8.078439660288444202e+02 5.623413251903491208e-06
8.387918237159100272e+02 1.000000000000000082e-05
8.722410234358145544e+02 1.778279410038922901e-05
9.088171723265784294e+02 3.162277660168379530e-05
9.481724542354642153e+02 5.623413251903490700e-05
9.905694544565455999e+02 1.000000000000000048e-04
1.036147137164819469e+03 1.778279410038922698e-04
1.084550940260852713e+03 3.162277660168379394e-04
1.136562420341617326e+03 5.623413251903490971e-04
1.193752888863574299e+03 1.000000000000000021e-03
1.258184368048284796e+03 1.778279410038922752e-03
1.333636893203005911e+03 3.162277660168379394e-03
1.423655348832169693e+03 5.623413251903490971e-03
1.548336587346520446e+03 1.000000000000000021e-02
1.738311579114718370e+03 1.778279410038922925e-02
1.976807232079303958e+03 3.162277660168379134e-02
2.213694058198804669e+03 5.623413251903491145e-02
2.427612074211826439e+03 1.000000000000000056e-01
2.623273529107446848e+03 1.778279410038922925e-01
2.808645604653927421e+03 3.162277660168379412e-01
2.990295569624824566e+03 5.623413251903490728e-01
3.173724411823996434e+03 1.000000000000000000e+00
3.364075543313384969e+03 1.778279410038922759e+00
3.566091123142729884e+03 3.162277660168379523e+00
3.784271061705239845e+03 5.623413251903491172e+00
4.023354838164645116e+03 1.000000000000000000e+01
4.288790193870422627e+03 1.778279410038922848e+01
4.587291043454029932e+03 3.162277660168379256e+01
4.927926403005249085e+03 5.623413251903490817e+01
5.327197238898485921e+03 1.000000000000000000e+02
5.796671298462512823e+03 1.778279410038922776e+02
6.358567568341270089e+03 3.162277660168379612e+02
