# Temperature (K), Pressure (bars)
9.450985076192758925e+02 9.999999999999999547e-07
9.540702202920333548e+02 1.778279410038922901e-06
9.630419329700516755e+02 3.162277660168379191e-06
9.771324304719069005e+02 5.623413251903491208e-06
9.976717709543888759e+02 1.000000000000000082e-05
1.024178732248144343e+03 1.778279410038922901e-05
1.056139571081247141e+03 3.162277660168379530e-05
1.093704726964912652e+03 5.623413251903490700e-05
1.136213952644436631e+03 1.000000000000000048e-04
1.182796532018242942e+03 1.778279410038922698e-04
1.233635129978624718e+03 3.162277660168379394e-04
1.288278931553367329e+03 5.623413251903490971e-04
1.348029016446183277e+03 1.000000000000000021e-03
1.416456332531604858e+03 1.778279410038922752e-03
1.495481778527069764e+03 3.162277660168379394e-03
1.586800081892795561e+03 5.623413251903490971e-03
1.696254867367317729e+03 1.000000000000000021e-02
1.815616644603559735e+03 1.778279410038922925e-02
1.961229197513897816e+03 3.162277660168379134e-02
2.160526868811094118e+03 5.623413251903491145e-02
2.372212491828566726e+03 1.000000000000000056e-01
2.564839318985114005e+03 1.778279410038922925e-01
2.750424147031782923e+03 3.162277660168379412e-01
2.935041584347714888e+03 5.623413251903490728e-01
3.122583380944071905e+03 1.000000000000000000e+00
3.316251763623961324e+03 1.778279410038922759e+00
3.519969249134384881e+03 3.162277660168379523e+00
3.738312331277074009e+03 5.623413251903491172e+00
3.976208464672871742e+03 1.000000000000000000e+01
4.239151974025424352e+03 1.778279410038922848e+01
4.533748371208664139e+03 3.162277660168379256e+01
4.868701181182597793e+03 5.623413251903490817e+01
5.259642693680790217e+03 1.000000000000000000e+02
5.717537076143425111e+03 1.778279410038922776e+02
6.263634046663139998e+03 3.162277660168379612e+02
