# Temperature (K), Pressure (bars)
9.359203103515912971e+02 3.162277660168379530e-05
9.844338801234986249e+02 5.623413251903490700e-05
1.032947449163410738e+03 1.000000000000000048e-04
1.077065946180259289e+03 1.778279410038922698e-04
1.121087932749021320e+03 3.162277660168379394e-04
1.162760725555632916e+03 5.623413251903490971e-04
1.197498058981627992e+03 1.000000000000000021e-03
1.228532636573002719e+03 1.778279410038922752e-03
1.259314714541261992e+03 3.162277660168379394e-03
1.291858443531471266e+03 5.623413251903490971e-03
1.321884530318312727e+03 1.000000000000000021e-02
1.354763895510318889e+03 1.778279410038922925e-02
1.425801346364940628e+03 3.162277660168379134e-02
1.548912362922151033e+03 5.623413251903491145e-02
1.704590321910906823e+03 1.000000000000000056e-01
1.893597182528032363e+03 1.778279410038922925e-01
2.121676491759842975e+03 3.162277660168379412e-01
2.366816042506236045e+03 5.623413251903490728e-01
2.604637160706579834e+03 1.000000000000000000e+00
2.831270710221067930e+03 1.778279410038922759e+00
3.052762712070216821e+03 3.162277660168379523e+00
3.275649033895124830e+03 5.623413251903491172e+00
3.506555818451957293e+03 1.000000000000000000e+01
3.751710368510214721e+03 1.778279410038922848e+01
4.019210921565370427e+03 3.162277660168379256e+01
4.313792646513632462e+03 5.623413251903490817e+01
4.642452825045115787e+03 1.000000000000000000e+02
5.008417610414803676e+03 1.778279410038922776e+02
5.432754771509969942e+03 3.162277660168379612e+02
