# Temperature (K), Pressure (bars)
9.313948318353488958e+02 5.623413251903490700e-05
9.884949234643345335e+02 1.000000000000000048e-04
1.045595016475835337e+03 1.778279410038922698e-04
1.098602225491295485e+03 3.162277660168379394e-04
1.147225481212769864e+03 5.623413251903490971e-04
1.188733351441954937e+03 1.000000000000000021e-03
1.222417126532904831e+03 1.778279410038922752e-03
1.252991360401831116e+03 3.162277660168379394e-03
1.283627078395470789e+03 5.623413251903490971e-03
1.315046752599394267e+03 1.000000000000000021e-02
1.345377698434466538e+03 1.778279410038922925e-02
1.385452012161317725e+03 3.162277660168379134e-02
1.463746975801373537e+03 5.623413251903491145e-02
1.580656337053076413e+03 1.000000000000000056e-01
1.725280311455178889e+03 1.778279410038922925e-01
1.882377109099739982e+03 3.162277660168379412e-01
2.056718926546579496e+03 5.623413251903490728e-01
2.288074596667575406e+03 1.000000000000000000e+00
2.548232770993267422e+03 1.778279410038922759e+00
2.796426291485277943e+03 3.162277660168379523e+00
3.038599012847919767e+03 5.623413251903491172e+00
3.280961052234400540e+03 1.000000000000000000e+01
3.530537371622460796e+03 1.778279410038922848e+01
3.795945847658555522e+03 3.162277660168379256e+01
4.082873469680509970e+03 5.623413251903490817e+01
4.398119561460913246e+03 1.000000000000000000e+02
4.744689772130398524e+03 1.778279410038922776e+02
5.141099403152031300e+03 3.162277660168379612e+02
