# Temperature (K), Pressure (bars)
8.606911330481566438e+02 3.162277660168379394e-04
9.088316554920894532e+02 5.623413251903490971e-04
9.569721794745332772e+02 1.000000000000000021e-03
1.005129062845597900e+03 1.778279410038922752e-03
1.053313310761724779e+03 3.162277660168379394e-03
1.102138051070709707e+03 5.623413251903490971e-03
1.152296950833165056e+03 1.000000000000000021e-02
1.205118274700140091e+03 1.778279410038922925e-02
1.263518015551956523e+03 3.162277660168379134e-02
1.332485817254990707e+03 5.623413251903491145e-02
1.420530568001388247e+03 1.000000000000000056e-01
1.545879993563740527e+03 1.778279410038922925e-01
1.712807615444982275e+03 3.162277660168379412e-01
1.927140947646595123e+03 5.623413251903490728e-01
2.194083369138269518e+03 1.000000000000000000e+00
2.469404221474165297e+03 1.778279410038922759e+00
2.725642459637026604e+03 3.162277660168379523e+00
2.973506081640117827e+03 5.623413251903491172e+00
3.219608627313662510e+03 1.000000000000000000e+01
3.471165770797307687e+03 1.778279410038922848e+01
3.737060828667066744e+03 3.162277660168379256e+01
4.023023413179660110e+03 5.623413251903490817e+01
4.335837890981430974e+03 1.000000000000000000e+02
4.678605075544524880e+03 1.778279410038922776e+02
5.069294149634453788e+03 3.162277660168379612e+02
