# Temperature (K), Pressure (bars)
7.785431155778373977e+02 5.623413251903490700e-05
8.257948566127815866e+02 1.000000000000000048e-04
8.730465987631805547e+02 1.778279410038922698e-04
9.197480259230433148e+02 3.162277660168379394e-04
9.663818187234303423e+02 5.623413251903490971e-04
1.014635256110692808e+03 1.000000000000000021e-03
1.066165417374487333e+03 1.778279410038922752e-03
1.123828662629598512e+03 3.162277660168379394e-03
1.189642246037772338e+03 5.623413251903490971e-03
1.269305488556479304e+03 1.000000000000000021e-02
1.365292596468955253e+03 1.778279410038922925e-02
1.502051630147833293e+03 3.162277660168379134e-02
1.701979537778526947e+03 5.623413251903491145e-02
1.935335450687770390e+03 1.000000000000000056e-01
2.179315515434199369e+03 1.778279410038922925e-01
2.418207203735664280e+03 3.162277660168379412e-01
2.637608122256518527e+03 5.623413251903490728e-01
2.844575042867939828e+03 1.000000000000000000e+00
3.047137493897850618e+03 1.778279410038922759e+00
3.252350122740318056e+03 3.162277660168379523e+00
3.466151901636421826e+03 5.623413251903491172e+00
3.693743649780398755e+03 1.000000000000000000e+01
3.940338965160885891e+03 1.778279410038922848e+01
4.214010224922556517e+03 3.162277660168379256e+01
4.519190314469022269e+03 5.623413251903490817e+01
4.863605177260860728e+03 1.000000000000000000e+02
5.250754241445471052e+03 1.778279410038922776e+02
5.705227805341630301e+03 3.162277660168379612e+02
