# Temperature (K), Pressure (bars)
2.144034032158709124e+03 9.999999999999999547e-07
2.171747300269319567e+03 1.778279410038922901e-06
2.199460568379930464e+03 3.162277660168379191e-06
2.229962649905573016e+03 5.623413251903491208e-06
2.264231477612114759e+03 1.000000000000000082e-05
2.302137226010670929e+03 1.778279410038922901e-05
2.342854956241192667e+03 3.162277660168379530e-05
2.384180076805349927e+03 5.623413251903490700e-05
2.423660208670360589e+03 1.000000000000000048e-04
2.459772914841180864e+03 1.778279410038922698e-04
2.492107461133549805e+03 3.162277660168379394e-04
2.521802201978867743e+03 5.623413251903490971e-04
2.551199150720546641e+03 1.000000000000000021e-03
2.582798410819214951e+03 1.778279410038922752e-03
2.619425739757746669e+03 3.162277660168379394e-03
2.663209271566577627e+03 5.623413251903490971e-03
2.717911267222510560e+03 1.000000000000000021e-02
2.784705050803741415e+03 1.778279410038922925e-02
2.874193420171302932e+03 3.162277660168379134e-02
2.999629173264574092e+03 5.623413251903491145e-02
3.148009403055721577e+03 1.000000000000000056e-01
3.311783516463056912e+03 1.778279410038922925e-01
3.499035694342589068e+03 3.162277660168379412e-01
3.713447792801704054e+03 5.623413251903490728e-01
3.958692351562513977e+03 1.000000000000000000e+00
4.242422805145029997e+03 1.778279410038922759e+00
4.556386945992103392e+03 3.162277660168379523e+00
4.944032851475944881e+03 5.623413251903491172e+00
5.446607899952358821e+03 1.000000000000000000e+01
6.137246485580725675e+03 1.778279410038922848e+01
7.138039023296485539e+03 3.162277660168379256e+01
8.618066180340136270e+03 5.623413251903490817e+01
1.051921427176667203e+04 1.000000000000000000e+02
1.280232136366083432e+04 1.778279410038922776e+02
1.552322588155220910e+04 3.162277660168379612e+02
