# Temperature (K), Pressure (bars)
2.385263486615422153e+03 9.999999999999999547e-07
2.393682767796981807e+03 1.778279410038922901e-06
2.402102048978541461e+03 3.162277660168379191e-06
2.438544556277764059e+03 5.623413251903491208e-06
2.472419916834829564e+03 1.000000000000000082e-05
2.500749187839210208e+03 1.778279410038922901e-05
2.534186083929549113e+03 3.162277660168379530e-05
2.570260776669976622e+03 5.623413251903490700e-05
2.610768923843353605e+03 1.000000000000000048e-04
2.656883540773614641e+03 1.778279410038922698e-04
2.707092965252236354e+03 3.162277660168379394e-04
2.758231241426950419e+03 5.623413251903490971e-04
2.807135089639267335e+03 1.000000000000000021e-03
2.851299187812825039e+03 1.778279410038922752e-03
2.892528131695876255e+03 3.162277660168379394e-03
2.938419324876530936e+03 5.623413251903490971e-03
2.994112018938983510e+03 1.000000000000000021e-02
3.054594221063234272e+03 1.778279410038922925e-02
3.112556384165825420e+03 3.162277660168379134e-02
3.201449998764024258e+03 5.623413251903491145e-02
3.357732457347947275e+03 1.000000000000000056e-01
3.546946982695434599e+03 1.778279410038922925e-01
3.763599840763504744e+03 3.162277660168379412e-01
4.024423953201586301e+03 5.623413251903490728e-01
4.324863261847524882e+03 1.000000000000000000e+00
4.715235087063726496e+03 1.778279410038922759e+00
5.275127585873344287e+03 3.162277660168379523e+00
6.171066732286786646e+03 5.623413251903491172e+00
7.538861660272761583e+03 1.000000000000000000e+01
9.260449619122817239e+03 1.778279410038922848e+01
1.000000000000000000e+04 3.162277660168379256e+01
1.000000000000000000e+04 5.623413251903490817e+01
1.000000000000000000e+04 1.000000000000000000e+02
1.000000000000000000e+04 1.778279410038922776e+02
1.000000000000000000e+04 3.162277660168379612e+02
