# Temperature (K), Pressure (bars)
1.217960652906575206e+03 1.778279410038922901e-06
1.250648834974833790e+03 3.162277660168379191e-06
1.283718326733158847e+03 5.623413251903491208e-06
1.321890711744917098e+03 1.000000000000000082e-05
1.364774076791110019e+03 1.778279410038922901e-05
1.412935311206145798e+03 3.162277660168379530e-05
1.467189581698574329e+03 5.623413251903490700e-05
1.527687292710543716e+03 1.000000000000000048e-04
1.594524589398773060e+03 1.778279410038922698e-04
1.665588643267966745e+03 3.162277660168379394e-04
1.749309056695383333e+03 5.623413251903490971e-04
1.855906049624501975e+03 1.000000000000000021e-03
1.981112118883452240e+03 1.778279410038922752e-03
2.122955233194393259e+03 3.162277660168379394e-03
2.272949713138471452e+03 5.623413251903490971e-03
2.421629636187299184e+03 1.000000000000000021e-02
2.571211718462333465e+03 1.778279410038922925e-02
2.724209624389187411e+03 3.162277660168379134e-02
2.882842206681899370e+03 5.623413251903491145e-02
3.049354108559434735e+03 1.000000000000000056e-01
3.226044797048033615e+03 1.778279410038922925e-01
3.414963662496414145e+03 3.162277660168379412e-01
3.618363293754880033e+03 5.623413251903490728e-01
3.840265838505612010e+03 1.000000000000000000e+00
4.087466052387587297e+03 1.778279410038922759e+00
4.369744651166629410e+03 3.162277660168379523e+00
4.695661432797678572e+03 5.623413251903491172e+00
5.093596685519460152e+03 1.000000000000000000e+01
5.601345987029552816e+03 1.778279410038922848e+01
6.286457283695154729e+03 3.162277660168379256e+01
7.258550220866488417e+03 5.623413251903490817e+01
8.677561380644965539e+03 1.000000000000000000e+02
1.054606535606348007e+04 1.778279410038922776e+02
1.278926455375738078e+04 3.162277660168379612e+02
