# Temperature (K), Pressure (bars)
1.487748571935216887e+03 9.999999999999999547e-07
1.535055283796420099e+03 1.778279410038922901e-06
1.582361995687400395e+03 3.162277660168379191e-06
1.637424849350423074e+03 5.623413251903491208e-06
1.699693930426463339e+03 1.000000000000000082e-05
1.774011856214711315e+03 1.778279410038922901e-05
1.846958269471090944e+03 3.162277660168379530e-05
1.904354724672592511e+03 5.623413251903490700e-05
1.950614427421059645e+03 1.000000000000000048e-04
1.990762477200128160e+03 1.778279410038922698e-04
2.027530770042030099e+03 3.162277660168379394e-04
2.062413025577346161e+03 5.623413251903490971e-04
2.096879164357416357e+03 1.000000000000000021e-03
2.132981165314923601e+03 1.778279410038922752e-03
2.172850198805921536e+03 3.162277660168379394e-03
2.217604227412399723e+03 5.623413251903490971e-03
2.271829333784783103e+03 1.000000000000000021e-02
2.335388890839707528e+03 1.778279410038922925e-02
2.422191797881335788e+03 3.162277660168379134e-02
2.552688648306604591e+03 5.623413251903491145e-02
2.704374379034066351e+03 1.000000000000000056e-01
2.859535460812827750e+03 1.778279410038922925e-01
3.025708026730648271e+03 3.162277660168379412e-01
3.204112257946758291e+03 5.623413251903490728e-01
3.394239166445549927e+03 1.000000000000000000e+00
3.596872134144728989e+03 1.778279410038922759e+00
3.815162686891037083e+03 3.162277660168379523e+00
4.054095898551107439e+03 5.623413251903491172e+00
4.319941591052927834e+03 1.000000000000000000e+01
4.620478449740554424e+03 1.778279410038922848e+01
4.966261002170205757e+03 3.162277660168379256e+01
5.374815039003990933e+03 5.623413251903490817e+01
5.864263768315097877e+03 1.000000000000000000e+02
6.465723766122438974e+03 1.778279410038922776e+02
7.228144627812552244e+03 3.162277660168379612e+02
