# Temperature (K), Pressure (bars)
1.753559913441428307e+03 9.999999999999999547e-07
1.776684030334053887e+03 1.778279410038922901e-06
1.799808147226679921e+03 3.162277660168379191e-06
1.830073386276428664e+03 5.623413251903491208e-06
1.864597623851608660e+03 1.000000000000000082e-05
1.902892794672331320e+03 1.778279410038922901e-05
1.945213878824846461e+03 3.162277660168379530e-05
1.990423173700356301e+03 5.623413251903490700e-05
2.039028184868056087e+03 1.000000000000000048e-04
2.090864604108960066e+03 1.778279410038922698e-04
2.145960165053898891e+03 3.162277660168379394e-04
2.205376699109020137e+03 5.623413251903490971e-04
2.271183848422382653e+03 1.000000000000000021e-03
2.349856960482142313e+03 1.778279410038922752e-03
2.446204169818001901e+03 3.162277660168379394e-03
2.555742319866653816e+03 5.623413251903490971e-03
2.674546377075397231e+03 1.000000000000000021e-02
2.803375956877100180e+03 1.778279410038922925e-02
2.943541921077933694e+03 3.162277660168379134e-02
3.097402208315663756e+03 5.623413251903491145e-02
3.268744134689130533e+03 1.000000000000000056e-01
3.465040880292905058e+03 1.778279410038922925e-01
3.667116700841941110e+03 3.162277660168379412e-01
3.899726433870494930e+03 5.623413251903490728e-01
4.172894703240093804e+03 1.000000000000000000e+00
4.493969113928119441e+03 1.778279410038922759e+00
4.908443078202393735e+03 3.162277660168379523e+00
5.489064876100299443e+03 5.623413251903491172e+00
6.365784415013868056e+03 1.000000000000000000e+01
7.702659226148934977e+03 1.778279410038922848e+01
9.448923826113790710e+03 3.162277660168379256e+01
1.000000000000000000e+04 5.623413251903490817e+01
1.000000000000000000e+04 1.000000000000000000e+02
1.000000000000000000e+04 1.778279410038922776e+02
1.000000000000000000e+04 3.162277660168379612e+02
