# Temperature (K), Pressure (bars)
1.534973774618709513e+03 9.999999999999999547e-07
1.537644689961256290e+03 1.778279410038922901e-06
1.540315605352624061e+03 3.162277660168379191e-06
1.546701475644128095e+03 5.623413251903491208e-06
1.557488648539869473e+03 1.000000000000000082e-05
1.572747990268165722e+03 1.778279410038922901e-05
1.593912188547786400e+03 3.162277660168379530e-05
1.621628767765268094e+03 5.623413251903490700e-05
1.655798832470461093e+03 1.000000000000000048e-04
1.696534689594847123e+03 1.778279410038922698e-04
1.743427076260514923e+03 3.162277660168379394e-04
1.796241487022678029e+03 5.623413251903490971e-04
1.853514569143550489e+03 1.000000000000000021e-03
1.914807626618398217e+03 1.778279410038922752e-03
1.980103975319785832e+03 3.162277660168379394e-03
2.053023959125438523e+03 5.623413251903490971e-03
2.131807739280087389e+03 1.000000000000000021e-02
2.229920007080176219e+03 1.778279410038922925e-02
2.368631592209381779e+03 3.162277660168379134e-02
2.523591395703429953e+03 5.623413251903491145e-02
2.675562073609339677e+03 1.000000000000000056e-01
2.832734639499298282e+03 1.778279410038922925e-01
2.998146564820981439e+03 3.162277660168379412e-01
3.174125395204271626e+03 5.623413251903490728e-01
3.361898818164631848e+03 1.000000000000000000e+00
3.562391444836513529e+03 1.778279410038922759e+00
3.778187382141994021e+03 3.162277660168379523e+00
4.013842916476258324e+03 5.623413251903491172e+00
4.275308348192440462e+03 1.000000000000000000e+01
4.570007597019954119e+03 1.778279410038922848e+01
4.907857439826186237e+03 3.162277660168379256e+01
5.305340937081629818e+03 5.623413251903490817e+01
5.779041124585413854e+03 1.000000000000000000e+02
6.357247351793935195e+03 1.778279410038922776e+02
7.083472736009449363e+03 3.162277660168379612e+02
