# Temperature (K), Pressure (bars)
1.003052082782253706e+03 3.162277660168379530e-05
1.052509544373983545e+03 5.623413251903490700e-05
1.101967009937654439e+03 1.000000000000000048e-04
1.147285675249608403e+03 1.778279410038922698e-04
1.191388531820255594e+03 3.162277660168379394e-04
1.238371044425580749e+03 5.623413251903490971e-04
1.289191621956882727e+03 1.000000000000000021e-03
1.344633216364544069e+03 1.778279410038922752e-03
1.406530421397969576e+03 3.162277660168379394e-03
1.480161149427377495e+03 5.623413251903490971e-03
1.571460051229313649e+03 1.000000000000000021e-02
1.684504965959903984e+03 1.778279410038922925e-02
1.826467171046771000e+03 3.162277660168379134e-02
2.010408717926825602e+03 5.623413251903491145e-02
2.227232426364488674e+03 1.000000000000000056e-01
2.439395328988530309e+03 1.778279410038922925e-01
2.634953095707641296e+03 3.162277660168379412e-01
2.825743833408389492e+03 5.623413251903490728e-01
3.017625257335743299e+03 1.000000000000000000e+00
3.214356260508083778e+03 1.778279410038922759e+00
3.419281212595260513e+03 3.162277660168379523e+00
3.636430304314155819e+03 5.623413251903491172e+00
3.870565322250758527e+03 1.000000000000000000e+01
4.126961698727345720e+03 1.778279410038922848e+01
4.411696160182112180e+03 3.162277660168379256e+01
4.732605218228090962e+03 5.623413251903490817e+01
5.104218840106523203e+03 1.000000000000000000e+02
5.534916242981739742e+03 1.778279410038922776e+02
6.041583020682045571e+03 3.162277660168379612e+02
