# Temperature (K), Pressure (bars)
1.278760461629205565e+03 9.999999999999999547e-07
1.326542841621301477e+03 1.778279410038922901e-06
1.374325221613397389e+03 3.162277660168379191e-06
1.423130219398552981e+03 5.623413251903491208e-06
1.476102555370273876e+03 1.000000000000000082e-05
1.541466160615558010e+03 1.778279410038922901e-05
1.615550220817707896e+03 3.162277660168379530e-05
1.688131888030841992e+03 5.623413251903490700e-05
1.759749911627788151e+03 1.000000000000000048e-04
1.835541803113088235e+03 1.778279410038922698e-04
1.917028878258803161e+03 3.162277660168379394e-04
2.006442680342728181e+03 5.623413251903490971e-04
2.110900151769135391e+03 1.000000000000000021e-03
2.232984580270452625e+03 1.778279410038922752e-03
2.365206476104207013e+03 3.162277660168379394e-03
2.502155077116555276e+03 5.623413251903490971e-03
2.644787440977921506e+03 1.000000000000000021e-02
2.795448142332204043e+03 1.778279410038922925e-02
2.957175058154080943e+03 3.162277660168379134e-02
3.133630350666863251e+03 5.623413251903491145e-02
3.332847801266620081e+03 1.000000000000000056e-01
3.523521432198097955e+03 1.778279410038922925e-01
3.739674056092920182e+03 3.162277660168379412e-01
3.989789896458555631e+03 5.623413251903490728e-01
4.278682928163528231e+03 1.000000000000000000e+00
4.646230300023874406e+03 1.778279410038922759e+00
5.153908799741237090e+03 3.162277660168379523e+00
5.922163902239103663e+03 5.623413251903491172e+00
7.111836162364375923e+03 1.000000000000000000e+01
8.747920291735243154e+03 1.778279410038922848e+01
1.000000000000000000e+04 3.162277660168379256e+01
1.000000000000000000e+04 5.623413251903490817e+01
1.000000000000000000e+04 1.000000000000000000e+02
1.000000000000000000e+04 1.778279410038922776e+02
1.000000000000000000e+04 3.162277660168379612e+02
