# Temperature (K), Pressure (bars)
2.243900392970649136e+03 9.999999999999999547e-07
2.259135492278663151e+03 1.778279410038922901e-06
2.274370591586677619e+03 3.162277660168379191e-06
2.302298840463756733e+03 5.623413251903491208e-06
2.334320229606038083e+03 1.000000000000000082e-05
2.367528238178854735e+03 1.778279410038922901e-05
2.403590696971446960e+03 3.162277660168379530e-05
2.441708334938842654e+03 5.623413251903490700e-05
2.481461776385632220e+03 1.000000000000000048e-04
2.520561590059542596e+03 1.778279410038922698e-04
2.555917242835734669e+03 3.162277660168379394e-04
2.585285771066779489e+03 5.623413251903490971e-04
2.610017932012629899e+03 1.000000000000000021e-03
2.635098573198438771e+03 1.778279410038922752e-03
2.667048164260556860e+03 3.162277660168379394e-03
2.709352805636979610e+03 5.623413251903490971e-03
2.763797147298153050e+03 1.000000000000000021e-02
2.824143466202733634e+03 1.778279410038922925e-02
2.893796453271253995e+03 3.162277660168379134e-02
2.997418869430629002e+03 5.623413251903491145e-02
3.136079747984598725e+03 1.000000000000000056e-01
3.296679441470310394e+03 1.778279410038922925e-01
3.480472058837127406e+03 3.162277660168379412e-01
3.691182473989105802e+03 5.623413251903490728e-01
3.932002395718771822e+03 1.000000000000000000e+00
4.208717766452298747e+03 1.778279410038922759e+00
4.525122261789330878e+03 3.162277660168379523e+00
4.901701009471390535e+03 5.623413251903491172e+00
5.388061130109676014e+03 1.000000000000000000e+01
6.064800120852384680e+03 1.778279410038922848e+01
7.081045127343457352e+03 3.162277660168379256e+01
8.569360037968335746e+03 5.623413251903490817e+01
1.000000000000000000e+04 1.000000000000000000e+02
1.000000000000000000e+04 1.778279410038922776e+02
1.000000000000000000e+04 3.162277660168379612e+02
