# Temperature (K), Pressure (bars)
2.294457822699414919e+03 9.999999999999999547e-07
2.309297363921497436e+03 1.778279410038922901e-06
2.324136905143579497e+03 3.162277660168379191e-06
2.339169879760189815e+03 5.623413251903491208e-06
2.355801439198806293e+03 1.000000000000000082e-05
2.372938059651111416e+03 1.778279410038922901e-05
2.387123801127797833e+03 3.162277660168379530e-05
2.394924806647163678e+03 5.623413251903490700e-05
2.398351399978184872e+03 1.000000000000000048e-04
2.406212006590276360e+03 1.778279410038922698e-04
2.425951782066184023e+03 3.162277660168379394e-04
2.458832985963903866e+03 5.623413251903490971e-04
2.502565220549590776e+03 1.000000000000000021e-03
2.556689459359816283e+03 1.778279410038922752e-03
2.621580508502031535e+03 3.162277660168379394e-03
2.701970258790312982e+03 5.623413251903490971e-03
2.805171271974248157e+03 1.000000000000000021e-02
2.927497730367051645e+03 1.778279410038922925e-02
3.064568926968062442e+03 3.162277660168379134e-02
3.219491460437674959e+03 5.623413251903491145e-02
3.397899224604972915e+03 1.000000000000000056e-01
3.594655050998547267e+03 1.778279410038922925e-01
3.824089570915743025e+03 3.162277660168379412e-01
4.092422111901532844e+03 5.623413251903490728e-01
4.425138287515726915e+03 1.000000000000000000e+00
4.879918230611257968e+03 1.778279410038922759e+00
5.567408194070003447e+03 3.162277660168379523e+00
6.607103649810350362e+03 5.623413251903491172e+00
8.114187324350237759e+03 1.000000000000000000e+01
9.882749321365212381e+03 1.778279410038922848e+01
1.000000000000000000e+04 3.162277660168379256e+01
1.000000000000000000e+04 5.623413251903490817e+01
1.000000000000000000e+04 1.000000000000000000e+02
1.000000000000000000e+04 1.778279410038922776e+02
1.000000000000000000e+04 3.162277660168379612e+02
