# Temperature (K), Pressure (bars)
1.065518171467835828e+03 5.623413251903490700e-05
1.122419364768124751e+03 1.000000000000000048e-04
1.179320562807356737e+03 1.778279410038922698e-04
1.242572448725590903e+03 3.162277660168379394e-04
1.308110085040953209e+03 5.623413251903490971e-04
1.371357184443795404e+03 1.000000000000000021e-03
1.436527003314201465e+03 1.778279410038922752e-03
1.506131226498846900e+03 3.162277660168379394e-03
1.586442664648416212e+03 5.623413251903490971e-03
1.672830836650543461e+03 1.000000000000000021e-02
1.748764610428666856e+03 1.778279410038922925e-02
1.817828808207261318e+03 3.162277660168379134e-02
1.889585315720234576e+03 5.623413251903491145e-02
1.973104664559751654e+03 1.000000000000000056e-01
2.074268819852429260e+03 1.778279410038922925e-01
2.206477897484674031e+03 3.162277660168379412e-01
2.394220198727495244e+03 5.623413251903490728e-01
2.617026836944724892e+03 1.000000000000000000e+00
2.839141138229427270e+03 1.778279410038922759e+00
3.058418576495457273e+03 3.162277660168379523e+00
3.281923265048706071e+03 5.623413251903491172e+00
3.514404086268898027e+03 1.000000000000000000e+01
3.760994424696939404e+03 1.778279410038922848e+01
4.029093775052700494e+03 3.162277660168379256e+01
4.324413422557355261e+03 5.623413251903490817e+01
4.654075041271492410e+03 1.000000000000000000e+02
5.021635937043542071e+03 1.778279410038922776e+02
5.447848557189397070e+03 3.162277660168379612e+02
