# Temperature (K), Pressure (bars)
1.032564005659780605e+03 9.999999999999999547e-07
1.054938112611839642e+03 1.778279410038922901e-06
1.077312219570573006e+03 3.162277660168379191e-06
1.106259216736881172e+03 5.623413251903491208e-06
1.140890073244106134e+03 1.000000000000000082e-05
1.180251071480931842e+03 1.778279410038922901e-05
1.225294047508206859e+03 3.162277660168379530e-05
1.274764189992892625e+03 5.623413251903490700e-05
1.327968987573960021e+03 1.000000000000000048e-04
1.385670829091748601e+03 1.778279410038922698e-04
1.450066707568913898e+03 3.162277660168379394e-04
1.522388537261072088e+03 5.623413251903490971e-04
1.606649971022744921e+03 1.000000000000000021e-03
1.710906561098192014e+03 1.778279410038922752e-03
1.828123276316149031e+03 3.162277660168379394e-03
1.964095807399749901e+03 5.623413251903490971e-03
2.133238817795420800e+03 1.000000000000000021e-02
2.311264986652987318e+03 1.778279410038922925e-02
2.479994060667665053e+03 3.162277660168379134e-02
2.645738616502861987e+03 5.623413251903491145e-02
2.812110334876691923e+03 1.000000000000000056e-01
2.981923132826996607e+03 1.778279410038922925e-01
3.157283052946063435e+03 3.162277660168379412e-01
3.340004759842003295e+03 5.623413251903490728e-01
3.532843015994819325e+03 1.000000000000000000e+00
3.740016235228799815e+03 1.778279410038922759e+00
3.966716881931964963e+03 3.162277660168379523e+00
4.219024279203371407e+03 5.623413251903491172e+00
4.504544688044805298e+03 1.000000000000000000e+01
4.833727930958137222e+03 1.778279410038922848e+01
5.223814756505630612e+03 3.162277660168379256e+01
5.694475602338737190e+03 5.623413251903490817e+01
6.278873669090810836e+03 1.000000000000000000e+02
7.031711754010523691e+03 1.778279410038922776e+02
8.043555631271824495e+03 3.162277660168379612e+02
