# Temperature (K), Pressure (bars)
8.718441338673623022e+02 9.999999999999999547e-07
9.203986633173472001e+02 1.778279410038922901e-06
9.689531927674031522e+02 3.162277660168379191e-06
1.028551043564725205e+03 5.623413251903491208e-06
1.103341356087499207e+03 1.000000000000000082e-05
1.201366998286553553e+03 1.778279410038922901e-05
1.342641822934817355e+03 3.162277660168379530e-05
1.516106749830336867e+03 5.623413251903490700e-05
1.662508272413493614e+03 1.000000000000000048e-04
1.751731378792372652e+03 1.778279410038922698e-04
1.810377568080046331e+03 3.162277660168379394e-04
1.860817714931425826e+03 5.623413251903490971e-04
1.907701740779339389e+03 1.000000000000000021e-03
1.955418436522010552e+03 1.778279410038922752e-03
2.007066974275817302e+03 3.162277660168379394e-03
2.065790889564462304e+03 5.623413251903490971e-03
2.134751511415368441e+03 1.000000000000000021e-02
2.220760935228549442e+03 1.778279410038922925e-02
2.337569681475703874e+03 3.162277660168379134e-02
2.483362475410899606e+03 5.623413251903491145e-02
2.639113166650407038e+03 1.000000000000000056e-01
2.798642291020541506e+03 1.778279410038922925e-01
2.966262430171825144e+03 3.162277660168379412e-01
3.143775585309953385e+03 5.623413251903490728e-01
3.331774032583489316e+03 1.000000000000000000e+00
3.531272567676703147e+03 1.778279410038922759e+00
3.745166194722639375e+03 3.162277660168379523e+00
3.978057931206091780e+03 5.623413251903491172e+00
4.235702353454162221e+03 1.000000000000000000e+01
4.525111177995886464e+03 1.778279410038922848e+01
4.855494213477639278e+03 3.162277660168379256e+01
5.242612834032769570e+03 5.623413251903490817e+01
5.699942766748850772e+03 1.000000000000000000e+02
6.250807067343911513e+03 1.778279410038922776e+02
6.929730961000229399e+03 3.162277660168379612e+02
