# Temperature (K), Pressure (bars)
8.894670361953035354e+02 1.778279410038922901e-05
9.334725962351039925e+02 3.162277660168379530e-05
9.774781559583607304e+02 5.623413251903490700e-05
1.026500455131613080e+03 1.000000000000000048e-04
1.079600876984877004e+03 1.778279410038922698e-04
1.130255186406404391e+03 3.162277660168379394e-04
1.174275763372590518e+03 5.623413251903490971e-04
1.212938691511181332e+03 1.000000000000000021e-03
1.248357666788435836e+03 1.778279410038922752e-03
1.283896264569268396e+03 3.162277660168379394e-03
1.328181847879487577e+03 5.623413251903490971e-03
1.367033971085393659e+03 1.000000000000000021e-02
1.434040359092576864e+03 1.778279410038922925e-02
1.603962861366044990e+03 3.162277660168379134e-02
1.842776112146997775e+03 5.623413251903491145e-02
2.086321775827868805e+03 1.000000000000000056e-01
2.318874842740087843e+03 1.778279410038922925e-01
2.535240940594219410e+03 3.162277660168379412e-01
2.740212879361570685e+03 5.623413251903490728e-01
2.939444591572409990e+03 1.000000000000000000e+00
3.138266057383582393e+03 1.778279410038922759e+00
3.342283995066701209e+03 3.162277660168379523e+00
3.556965722620304859e+03 5.623413251903491172e+00
3.787380639805563078e+03 1.000000000000000000e+01
4.038825138842560136e+03 1.778279410038922848e+01
4.319510852712288397e+03 3.162277660168379256e+01
4.634654821834657014e+03 5.623413251903490817e+01
4.992644294563122457e+03 1.000000000000000000e+02
5.397295489668567825e+03 1.778279410038922776e+02
5.876005404306363744e+03 3.162277660168379612e+02
