# Temperature (K), Pressure (bars)
1.513101265501416037e+03 9.999999999999999547e-07
1.569714807724424190e+03 1.778279410038922901e-06
1.626328349947534207e+03 3.162277660168379191e-06
1.680055381103883974e+03 5.623413251903491208e-06
1.732035614585655594e+03 1.000000000000000082e-05
1.780283377997455091e+03 1.778279410038922901e-05
1.828008564552610324e+03 3.162277660168379530e-05
1.877878360016837632e+03 5.623413251903490700e-05
1.929389261902389990e+03 1.000000000000000048e-04
1.983757925011582984e+03 1.778279410038922698e-04
2.042509543283002586e+03 3.162277660168379394e-04
2.107419693861858832e+03 5.623413251903490971e-04
2.180155498720574542e+03 1.000000000000000021e-03
2.265079722669839157e+03 1.778279410038922752e-03
2.365546891458976006e+03 3.162277660168379394e-03
2.477836425653065817e+03 5.623413251903490971e-03
2.598901863442947615e+03 1.000000000000000021e-02
2.730179795385120542e+03 1.778279410038922925e-02
2.873727114206957594e+03 3.162277660168379134e-02
3.031984622764632149e+03 5.623413251903491145e-02
3.207494387295650540e+03 1.000000000000000056e-01
3.402122119002077397e+03 1.778279410038922925e-01
3.617603540690951377e+03 3.162277660168379412e-01
3.858596012888592668e+03 5.623413251903490728e-01
4.136624853246592465e+03 1.000000000000000000e+00
4.444793905227440519e+03 1.778279410038922759e+00
4.835320842054521563e+03 3.162277660168379523e+00
5.367264291003423750e+03 5.623413251903491172e+00
6.159442473246500413e+03 1.000000000000000000e+01
7.390163215536379539e+03 1.778279410038922848e+01
9.067200974298282745e+03 3.162277660168379256e+01
1.105574452994056810e+04 5.623413251903490817e+01
1.345219793144942741e+04 1.000000000000000000e+02
1.637816244991166059e+04 1.778279410038922776e+02
1.986745299534199148e+04 3.162277660168379612e+02
