# Temperature (K), Pressure (bars)
1.399981774828732114e+03 1.000000000000000082e-05
1.422713980733192102e+03 1.778279410038922901e-05
1.445678317703558150e+03 3.162277660168379530e-05
1.474281424267212287e+03 5.623413251903490700e-05
1.519121337503944005e+03 1.000000000000000048e-04
1.582249263101086854e+03 1.778279410038922698e-04
1.646528583841574346e+03 3.162277660168379394e-04
1.702166484489487175e+03 5.623413251903490971e-04
1.755741141915755179e+03 1.000000000000000021e-03
1.813400270057128864e+03 1.778279410038922752e-03
1.874081895828277084e+03 3.162277660168379394e-03
1.937173475240662810e+03 5.623413251903490971e-03
2.003735642032477244e+03 1.000000000000000021e-02
2.078601997162487351e+03 1.778279410038922925e-02
2.161798901188056334e+03 3.162277660168379134e-02
2.269970722428762656e+03 5.623413251903491145e-02
2.426071676287665468e+03 1.000000000000000056e-01
2.601431701938107835e+03 1.778279410038922925e-01
2.772587562822925065e+03 3.162277660168379412e-01
2.947842657864306148e+03 5.623413251903490728e-01
3.130956687308653272e+03 1.000000000000000000e+00
3.324533399883933726e+03 1.778279410038922759e+00
3.530634470400927967e+03 3.162277660168379523e+00
3.751951460170869723e+03 5.623413251903491172e+00
3.992667551856476166e+03 1.000000000000000000e+01
4.258296802040456896e+03 1.778279410038922848e+01
4.555611818037814373e+03 3.162277660168379256e+01
4.893553478797528442e+03 5.623413251903490817e+01
5.288042114403078813e+03 1.000000000000000000e+02
5.750843137142815976e+03 1.778279410038922776e+02
6.303416719842341081e+03 3.162277660168379612e+02
