# Temperature (K), Pressure (bars)
1.075908287265016725e+03 3.162277660168379394e-04
1.122759108893068969e+03 5.623413251903490971e-04
1.169609932237158091e+03 1.000000000000000021e-03
1.217279771553598493e+03 1.778279410038922752e-03
1.265919944769013227e+03 3.162277660168379394e-03
1.316541850324215829e+03 5.623413251903490971e-03
1.370680588328675412e+03 1.000000000000000021e-02
1.430269397644770834e+03 1.778279410038922925e-02
1.499642021192101538e+03 3.162277660168379134e-02
1.582775908184163200e+03 5.623413251903491145e-02
1.684840734653181244e+03 1.000000000000000056e-01
1.816652795150693009e+03 1.778279410038922925e-01
1.965793028619761117e+03 3.162277660168379412e-01
2.140555198499030666e+03 5.623413251903490728e-01
2.370611485628046921e+03 1.000000000000000000e+00
2.621253036612533833e+03 1.778279410038922759e+00
2.860136452333343186e+03 3.162277660168379523e+00
3.095862998445438734e+03 5.623413251903491172e+00
3.334912089820868005e+03 1.000000000000000000e+01
3.583295352995080975e+03 1.778279410038922848e+01
3.848641344555073374e+03 3.162277660168379256e+01
4.136798151220105865e+03 5.623413251903490817e+01
4.454583369896278782e+03 1.000000000000000000e+02
4.804989144373099407e+03 1.778279410038922776e+02
5.207134408724642526e+03 3.162277660168379612e+02
