# Temperature (K), Pressure (bars)
1.009489846751121945e+03 9.999999999999999547e-07
1.040292918801627820e+03 1.778279410038922901e-06
1.071095990865481781e+03 3.162277660168379191e-06
1.106063681656449262e+03 5.623413251903491208e-06
1.144289459850242793e+03 1.000000000000000082e-05
1.185305685245885570e+03 1.778279410038922901e-05
1.230359271721446703e+03 3.162277660168379530e-05
1.279409141152729489e+03 5.623413251903490700e-05
1.332963939249526902e+03 1.000000000000000048e-04
1.392632090146810469e+03 1.778279410038922698e-04
1.460376248994647312e+03 3.162277660168379394e-04
1.537906667674230675e+03 5.623413251903490971e-04
1.626827222969675404e+03 1.000000000000000021e-03
1.730838711545976366e+03 1.778279410038922752e-03
1.859774332782240890e+03 3.162277660168379394e-03
2.019096338817354763e+03 5.623413251903490971e-03
2.193715063399168685e+03 1.000000000000000021e-02
2.365638501211585663e+03 1.778279410038922925e-02
2.532277597237218288e+03 3.162277660168379134e-02
2.697564711261570210e+03 5.623413251903491145e-02
2.864801425355857646e+03 1.000000000000000056e-01
3.036440445634936623e+03 1.778279410038922925e-01
3.214169523936390760e+03 3.162277660168379412e-01
3.399806805314929989e+03 5.623413251903490728e-01
3.596620192719585702e+03 1.000000000000000000e+00
3.809359383769695341e+03 1.778279410038922759e+00
4.043690972345049886e+03 3.162277660168379523e+00
4.306434402833575405e+03 5.623413251903491172e+00
4.606578314468360986e+03 1.000000000000000000e+01
4.958276136273655538e+03 1.778279410038922848e+01
5.379033039236331206e+03 3.162277660168379256e+01
5.896272390507115233e+03 5.623413251903490817e+01
6.554401256711696078e+03 1.000000000000000000e+02
7.427893771981694044e+03 1.778279410038922776e+02
8.641435365433053448e+03 3.162277660168379612e+02
