# Temperature (K), Pressure (bars)
9.751767012077015124e+02 1.000000000000000048e-04
1.010638552604370602e+03 1.778279410038922698e-04
1.046100404112841716e+03 3.162277660168379394e-04
1.077667754800600960e+03 5.623413251903490971e-04
1.106930169933474872e+03 1.000000000000000021e-03
1.134980000678236138e+03 1.778279410038922752e-03
1.160987141302739246e+03 3.162277660168379394e-03
1.185771452019802837e+03 5.623413251903490971e-03
1.211239332484371062e+03 1.000000000000000021e-02
1.239703788981603111e+03 1.778279410038922925e-02
1.272079542048436906e+03 3.162277660168379134e-02
1.313396706073909854e+03 5.623413251903491145e-02
1.374462856682354868e+03 1.000000000000000056e-01
1.457121504710347153e+03 1.778279410038922925e-01
1.565398082203055765e+03 3.162277660168379412e-01
1.701756793857744697e+03 5.623413251903490728e-01
1.895036751580122882e+03 1.000000000000000000e+00
2.168135314599628600e+03 1.778279410038922759e+00
2.461212569215624171e+03 3.162277660168379523e+00
2.734616493929284843e+03 5.623413251903491172e+00
3.000086873701066907e+03 1.000000000000000000e+01
3.263861468970156693e+03 1.778279410038922848e+01
3.535455641429475691e+03 3.162277660168379256e+01
3.821487756399458249e+03 5.623413251903490817e+01
4.129198774413455794e+03 1.000000000000000000e+02
4.462211168957065638e+03 1.778279410038922776e+02
4.836847767926771667e+03 3.162277660168379612e+02
