# Temperature (K), Pressure (bars)
1.909647126772885031e+03 9.999999999999999547e-07
1.923138391964494303e+03 1.778279410038922901e-06
1.936629657156104258e+03 3.162277660168379191e-06
1.954432211753647152e+03 5.623413251903491208e-06
1.977758971377423222e+03 1.000000000000000082e-05
2.008093823565527828e+03 1.778279410038922901e-05
2.044736609235150354e+03 3.162277660168379530e-05
2.084842873196491382e+03 5.623413251903490700e-05
2.127118824091775878e+03 1.000000000000000048e-04
2.171586717081471761e+03 1.778279410038922698e-04
2.218616418489049465e+03 3.162277660168379394e-04
2.269182229211649428e+03 5.623413251903490971e-04
2.325571486087418634e+03 1.000000000000000021e-03
2.388596295191840454e+03 1.778279410038922752e-03
2.464449813780431668e+03 3.162277660168379394e-03
2.561315315676088630e+03 5.623413251903490971e-03
2.673525466657201832e+03 1.000000000000000021e-02
2.795595886610004072e+03 1.778279410038922925e-02
2.929543690050046280e+03 3.162277660168379134e-02
3.077054307276649070e+03 5.623413251903491145e-02
3.240880113239771617e+03 1.000000000000000056e-01
3.426901275317465661e+03 1.778279410038922925e-01
3.620816133774868831e+03 3.162277660168379412e-01
3.842576183913504337e+03 5.623413251903490728e-01
4.099461014570224506e+03 1.000000000000000000e+00
4.394219759778558910e+03 1.778279410038922759e+00
4.760474580320666973e+03 3.162277660168379523e+00
5.244431824452889487e+03 5.623413251903491172e+00
5.933355102267735674e+03 1.000000000000000000e+01
6.952518398645584966e+03 1.778279410038922848e+01
8.454593088061938033e+03 3.162277660168379256e+01
1.000000000000000000e+04 5.623413251903490817e+01
1.000000000000000000e+04 1.000000000000000000e+02
1.000000000000000000e+04 1.778279410038922776e+02
1.000000000000000000e+04 3.162277660168379612e+02
