# Temperature (K), Pressure (bars)
9.221430674498485587e+02 3.162277660168379394e-04
9.717886250556134655e+02 5.623413251903490971e-04
1.021434184645853406e+03 1.000000000000000021e-03
1.070958203256118168e+03 1.778279410038922752e-03
1.120571996021209998e+03 3.162277660168379394e-03
1.171037753256516453e+03 5.623413251903490971e-03
1.223146447762493835e+03 1.000000000000000021e-02
1.281452581023069342e+03 1.778279410038922925e-02
1.347212265889995933e+03 3.162277660168379134e-02
1.452449425582567983e+03 5.623413251903491145e-02
1.643208652686443429e+03 1.000000000000000056e-01
1.891424368075640587e+03 1.778279410038922925e-01
2.148796250966864591e+03 3.162277660168379412e-01
2.397927152716862111e+03 5.623413251903490728e-01
2.632151169463028964e+03 1.000000000000000000e+00
2.855604593382038274e+03 1.778279410038922759e+00
3.074835698630405204e+03 3.162277660168379523e+00
3.296507025219337720e+03 5.623413251903491172e+00
3.526951944848775383e+03 1.000000000000000000e+01
3.772160438214707938e+03 1.778279410038922848e+01
4.040191164226399906e+03 3.162277660168379256e+01
4.335744594734984275e+03 5.623413251903490817e+01
4.665861943895216427e+03 1.000000000000000000e+02
5.034117107764523098e+03 1.778279410038922776e+02
5.461241429444053210e+03 3.162277660168379612e+02
