# Temperature (K), Pressure (bars)
2.153205949882594268e+03 9.999999999999999547e-07
2.192659497224145071e+03 1.778279410038922901e-06
2.232113044565695418e+03 3.162277660168379191e-06
2.274485615027986569e+03 5.623413251903491208e-06
2.319844928841400815e+03 1.000000000000000082e-05
2.366865799928018077e+03 1.778279410038922901e-05
2.413516028627046126e+03 3.162277660168379530e-05
2.457881600216294828e+03 5.623413251903490700e-05
2.498724696379634679e+03 1.000000000000000048e-04
2.535808137320116202e+03 1.778279410038922698e-04
2.570558986386917695e+03 3.162277660168379394e-04
2.605710523421089874e+03 5.623413251903490971e-04
2.644114829455982999e+03 1.000000000000000021e-03
2.688574196674466293e+03 1.778279410038922752e-03
2.741358023320533903e+03 3.162277660168379394e-03
2.805692473205231181e+03 5.623413251903490971e-03
2.882221493456032022e+03 1.000000000000000021e-02
2.976749822936517830e+03 1.778279410038922925e-02
3.102279757200083168e+03 3.162277660168379134e-02
3.259596878114815354e+03 5.623413251903491145e-02
3.449699801104249673e+03 1.000000000000000056e-01
3.659006318161087165e+03 1.778279410038922925e-01
3.914050648075919526e+03 3.162277660168379412e-01
4.212643928193057945e+03 5.623413251903490728e-01
4.613033850399435323e+03 1.000000000000000000e+00
5.206540325164194655e+03 1.778279410038922759e+00
6.111044232962036403e+03 3.162277660168379523e+00
7.457787617450027028e+03 5.623413251903491172e+00
9.147654481117288015e+03 1.000000000000000000e+01
1.000000000000000000e+04 1.778279410038922848e+01
1.000000000000000000e+04 3.162277660168379256e+01
1.000000000000000000e+04 5.623413251903490817e+01
1.000000000000000000e+04 1.000000000000000000e+02
1.000000000000000000e+04 1.778279410038922776e+02
1.000000000000000000e+04 3.162277660168379612e+02
