# Temperature (K), Pressure (bars)
1.107894833724047658e+03 1.000000000000000082e-05
1.144921608609691020e+03 1.778279410038922901e-05
1.181948391752752741e+03 3.162277660168379530e-05
1.246111643427398576e+03 5.623413251903490700e-05
1.337593247547478541e+03 1.000000000000000048e-04
1.470791938507428767e+03 1.778279410038922698e-04
1.606723559069508838e+03 3.162277660168379394e-04
1.701286605817758527e+03 5.623413251903490971e-04
1.769643077442416370e+03 1.000000000000000021e-03
1.826643294993040627e+03 1.778279410038922752e-03
1.872632996574852086e+03 3.162277660168379394e-03
1.911212290695626962e+03 5.623413251903490971e-03
1.946077282490275365e+03 1.000000000000000021e-02
1.980046809940013873e+03 1.778279410038922925e-02
2.016358479894923221e+03 3.162277660168379134e-02
2.059470867548988736e+03 5.623413251903491145e-02
2.112146063466113901e+03 1.000000000000000056e-01
2.180098921202921701e+03 1.778279410038922925e-01
2.261509926986162554e+03 3.162277660168379412e-01
2.383134810015114908e+03 5.623413251903490728e-01
2.580923209986293841e+03 1.000000000000000000e+00
2.809492451836395958e+03 1.778279410038922759e+00
3.030666522291920955e+03 3.162277660168379523e+00
3.255532195060940467e+03 5.623413251903491172e+00
3.489066480385267823e+03 1.000000000000000000e+01
3.736085357283535814e+03 1.778279410038922848e+01
4.003661048150317583e+03 3.162277660168379256e+01
4.297799454822998086e+03 5.623413251903490817e+01
4.625588260012458704e+03 1.000000000000000000e+02
4.990519888009514943e+03 1.778279410038922776e+02
5.412891531430030227e+03 3.162277660168379612e+02
