# Temperature (K), Pressure (bars)
2.099610048449599617e+03 9.999999999999999547e-07
2.110240059837078661e+03 1.778279410038922901e-06
2.120870071224557250e+03 3.162277660168379191e-06
2.131323874228455679e+03 5.623413251903491208e-06
2.144650564964958448e+03 1.000000000000000082e-05
2.163350524292499358e+03 1.778279410038922901e-05
2.186333661602000120e+03 3.162277660168379530e-05
2.211351129529891750e+03 5.623413251903490700e-05
2.236960761321486643e+03 1.000000000000000048e-04
2.262592639532158046e+03 1.778279410038922698e-04
2.288988748555163511e+03 3.162277660168379394e-04
2.317886918340931970e+03 5.623413251903490971e-04
2.350743062296474363e+03 1.000000000000000021e-03
2.388991588282549856e+03 1.778279410038922752e-03
2.433620052543132260e+03 3.162277660168379394e-03
2.486237774327915304e+03 5.623413251903490971e-03
2.547383815166736440e+03 1.000000000000000021e-02
2.629307343321821918e+03 1.778279410038922925e-02
2.744192644958245637e+03 3.162277660168379134e-02
2.877419318494282834e+03 5.623413251903491145e-02
3.020202469128329994e+03 1.000000000000000056e-01
3.178866369116818078e+03 1.778279410038922925e-01
3.356106349691204741e+03 3.162277660168379412e-01
3.553323040501732521e+03 5.623413251903490728e-01
3.771357939130933573e+03 1.000000000000000000e+00
4.013199148951578081e+03 1.778279410038922759e+00
4.285845367218321371e+03 3.162277660168379523e+00
4.600847471782783032e+03 5.623413251903491172e+00
4.969921131076926031e+03 1.000000000000000000e+01
5.428301116978050231e+03 1.778279410038922848e+01
6.026752592658464891e+03 3.162277660168379256e+01
6.860323208756843087e+03 5.623413251903490817e+01
8.076111441708527309e+03 1.000000000000000000e+02
9.768959651120927447e+03 1.778279410038922776e+02
1.000000000000000000e+04 3.162277660168379612e+02
