# Temperature (K), Pressure (bars)
2.252579023049794159e+03 9.999999999999999547e-07
2.267230862418736251e+03 1.778279410038922901e-06
2.281882701789277235e+03 3.162277660168379191e-06
2.295985926803388338e+03 5.623413251903491208e-06
2.310320038362089690e+03 1.000000000000000082e-05
2.322106430398966950e+03 1.778279410038922901e-05
2.327447454858381661e+03 3.162277660168379530e-05
2.328550961183372237e+03 5.623413251903490700e-05
2.333872482758174556e+03 1.000000000000000048e-04
2.350373041083416865e+03 1.778279410038922698e-04
2.379074561312208971e+03 3.162277660168379394e-04
2.418193254515093940e+03 5.623413251903490971e-04
2.466287097487153005e+03 1.000000000000000021e-03
2.523396020462990236e+03 1.778279410038922752e-03
2.591791612783413257e+03 3.162277660168379394e-03
2.677728279695716992e+03 5.623413251903490971e-03
2.784500816163607396e+03 1.000000000000000021e-02
2.907230275147057000e+03 1.778279410038922925e-02
3.043647568482861061e+03 3.162277660168379134e-02
3.196965622720294959e+03 5.623413251903491145e-02
3.372185398487630664e+03 1.000000000000000056e-01
3.578109651432038390e+03 1.778279410038922925e-01
3.836161009258024933e+03 3.162277660168379412e-01
4.101007994946252438e+03 5.623413251903490728e-01
4.435685266613382737e+03 1.000000000000000000e+00
4.896203490263102140e+03 1.778279410038922759e+00
5.601061335134475485e+03 3.162277660168379523e+00
6.704051748743171629e+03 5.623413251903491172e+00
8.261296431068805759e+03 1.000000000000000000e+01
1.003854454757912754e+04 1.778279410038922848e+01
1.207720694689338779e+04 3.162277660168379256e+01
1.463301752264040806e+04 5.623413251903490817e+01
1.780329132773917081e+04 1.000000000000000000e+02
2.167285805873973004e+04 1.778279410038922776e+02
2.628921309972798190e+04 3.162277660168379612e+02
