# Temperature (K), Pressure (bars)
8.041231866009101168e+02 3.162277660168379394e-04
8.473818492574861239e+02 5.623413251903490971e-04
8.906405130470848235e+02 1.000000000000000021e-03
9.332100457590926226e+02 1.778279410038922752e-03
9.760413759188372751e+02 3.162277660168379394e-03
1.020159060994633933e+03 5.623413251903490971e-03
1.065567035765997161e+03 1.000000000000000021e-02
1.114036854513914250e+03 1.778279410038922925e-02
1.169316688874633201e+03 3.162277660168379134e-02
1.236808902447106448e+03 5.623413251903491145e-02
1.323757115976227169e+03 1.000000000000000056e-01
1.449784579266965693e+03 1.778279410038922925e-01
1.644836583242600000e+03 3.162277660168379412e-01
1.900927808518756137e+03 5.623413251903490728e-01
2.174857565499659813e+03 1.000000000000000000e+00
2.443439379486495909e+03 1.778279410038922759e+00
2.702554075607750747e+03 3.162277660168379523e+00
2.952538968179063886e+03 5.623413251903491172e+00
3.199604754940630301e+03 1.000000000000000000e+01
3.451504520196386693e+03 1.778279410038922848e+01
3.717551665301138200e+03 3.162277660168379256e+01
4.003189199146705050e+03 5.623413251903490817e+01
4.315228633734859613e+03 1.000000000000000000e+02
4.656796969339978205e+03 1.778279410038922776e+02
5.045589145236142940e+03 3.162277660168379612e+02
