# Temperature (K), Pressure (bars)
9.857254768593243170e+02 5.623413251903490971e-04
1.038894182853819075e+03 1.000000000000000021e-03
1.092062891031703430e+03 1.778279410038922752e-03
1.143631521294539198e+03 3.162277660168379394e-03
1.193049950188355751e+03 5.623413251903490971e-03
1.241399739649887579e+03 1.000000000000000021e-02
1.292664877823890038e+03 1.778279410038922925e-02
1.353392855862941587e+03 3.162277660168379134e-02
1.427710093703932444e+03 5.623413251903491145e-02
1.508212253868782909e+03 1.000000000000000056e-01
1.596106947716690684e+03 1.778279410038922925e-01
1.704305495955890137e+03 3.162277660168379412e-01
1.825050786380439149e+03 5.623413251903490728e-01
1.951031092279218456e+03 1.000000000000000000e+00
2.106892984920829349e+03 1.778279410038922759e+00
2.333075093445229413e+03 3.162277660168379523e+00
2.616631197942708241e+03 5.623413251903491172e+00
2.901158815849923485e+03 1.000000000000000000e+01
3.173458873020262217e+03 1.778279410038922848e+01
3.449660929080524511e+03 3.162277660168379256e+01
3.737551392219172612e+03 5.623413251903490817e+01
4.044787132403836495e+03 1.000000000000000000e+02
4.375672478077449341e+03 1.778279410038922776e+02
4.745387540127615466e+03 3.162277660168379612e+02
