# Temperature (K), Pressure (bars)
9.295292175210846608e+02 1.000000000000000048e-04
9.807724587613017775e+02 1.778279410038922698e-04
1.032015701521896062e+03 3.162277660168379394e-04
1.082209828466544195e+03 5.623413251903490971e-04
1.132923473669588475e+03 1.000000000000000021e-03
1.185287977637588938e+03 1.778279410038922752e-03
1.239742978224899389e+03 3.162277660168379394e-03
1.297008476718431666e+03 5.623413251903490971e-03
1.359222332500109360e+03 1.000000000000000021e-02
1.431742149814176855e+03 1.778279410038922925e-02
1.527755788336112346e+03 3.162277660168379134e-02
1.658036008712029343e+03 5.623413251903491145e-02
1.838911304622788521e+03 1.000000000000000056e-01
2.073413725947148578e+03 1.778279410038922925e-01
2.318301188267503676e+03 3.162277660168379412e-01
2.545344060111359795e+03 5.623413251903490728e-01
2.760812894220730414e+03 1.000000000000000000e+00
2.971241761550841147e+03 1.778279410038922759e+00
3.182560429437719904e+03 3.162277660168379523e+00
3.400172168896989206e+03 5.623413251903491172e+00
3.629487022129315847e+03 1.000000000000000000e+01
3.876057232706583818e+03 1.778279410038922848e+01
4.147851881310019962e+03 3.162277660168379256e+01
4.449770495350440797e+03 5.623413251903490817e+01
4.789321289139831606e+03 1.000000000000000000e+02
5.170293484896164955e+03 1.778279410038922776e+02
5.615513411829111647e+03 3.162277660168379612e+02
