# Temperature (K), Pressure (bars)
2.339413269617328297e+03 9.999999999999999547e-07
2.357646399248443231e+03 1.778279410038922901e-06
2.375879528879558620e+03 3.162277660168379191e-06
2.400044453378913659e+03 5.623413251903491208e-06
2.433260224073741028e+03 1.000000000000000082e-05
2.467653184256643726e+03 1.778279410038922901e-05
2.502442472605122020e+03 3.162277660168379530e-05
2.540031693838817318e+03 5.623413251903490700e-05
2.579083979440979419e+03 1.000000000000000048e-04
2.619450712013324846e+03 1.778279410038922698e-04
2.659656893225900603e+03 3.162277660168379394e-04
2.696438781080639274e+03 5.623413251903490971e-04
2.725683873580537238e+03 1.000000000000000021e-03
2.747011105613262771e+03 1.778279410038922752e-03
2.767509565230698627e+03 3.162277660168379394e-03
2.798391286291410324e+03 5.623413251903490971e-03
2.844444024255119075e+03 1.000000000000000021e-02
2.907994403150206381e+03 1.778279410038922925e-02
2.980560162263222537e+03 3.162277660168379134e-02
3.071303529571252966e+03 5.623413251903491145e-02
3.209909404195987918e+03 1.000000000000000056e-01
3.381206395849425462e+03 1.778279410038922925e-01
3.571546455170191621e+03 3.162277660168379412e-01
3.793020518041928426e+03 5.623413251903490728e-01
4.052510948314730285e+03 1.000000000000000000e+00
4.361352416674195410e+03 1.778279410038922759e+00
4.715834185287782930e+03 3.162277660168379523e+00
5.177534665163519094e+03 5.623413251903491172e+00
5.831588669145443419e+03 1.000000000000000000e+01
6.836021322009928554e+03 1.778279410038922848e+01
8.311665818756284352e+03 3.162277660168379256e+01
1.000000000000000000e+04 5.623413251903490817e+01
1.000000000000000000e+04 1.000000000000000000e+02
1.000000000000000000e+04 1.778279410038922776e+02
1.000000000000000000e+04 3.162277660168379612e+02
