# Temperature (K), Pressure (bars)
1.218406380335886979e+03 1.778279410038922901e-05
1.265706199354854107e+03 3.162277660168379530e-05
1.313006021740270853e+03 5.623413251903490700e-05
1.363376585185714703e+03 1.000000000000000048e-04
1.439079478421266003e+03 1.778279410038922698e-04
1.515342042221031079e+03 3.162277660168379394e-04
1.569562342120565972e+03 5.623413251903490971e-04
1.616759198850569192e+03 1.000000000000000021e-03
1.666122712042201329e+03 1.778279410038922752e-03
1.715935876339231072e+03 3.162277660168379394e-03
1.766535408548571240e+03 5.623413251903490971e-03
1.821209199732964407e+03 1.000000000000000021e-02
1.879504630851856518e+03 1.778279410038922925e-02
1.940088456558976077e+03 3.162277660168379134e-02
2.012303437915651330e+03 5.623413251903491145e-02
2.096553986707219337e+03 1.000000000000000056e-01
2.213027708801725566e+03 1.778279410038922925e-01
2.395777959333753643e+03 3.162277660168379412e-01
2.608220889831875866e+03 5.623413251903490728e-01
2.813463360258781904e+03 1.000000000000000000e+00
3.019097667664975688e+03 1.778279410038922759e+00
3.229371877055599271e+03 3.162277660168379523e+00
3.447745829324097940e+03 5.623413251903491172e+00
3.678673435678976603e+03 1.000000000000000000e+01
3.927557834692954657e+03 1.778279410038922848e+01
4.202021762653895166e+03 3.162277660168379256e+01
4.507870458975880865e+03 5.623413251903490817e+01
4.852985226093541314e+03 1.000000000000000000e+02
5.241040246098249554e+03 1.778279410038922776e+02
5.696817635140931998e+03 3.162277660168379612e+02
