# Temperature (K), Pressure (bars)
7.863439647365671590e+02 3.162277660168379394e-04
8.338619369009757065e+02 5.623413251903490971e-04
8.813799102251714430e+02 1.000000000000000021e-03
9.277992436890957606e+02 1.778279410038922752e-03
9.737546550947060950e+02 3.162277660168379394e-03
1.021201493734976111e+03 5.623413251903490971e-03
1.072569593035811295e+03 1.000000000000000021e-02
1.131644919027303786e+03 1.778279410038922925e-02
1.203122487072025024e+03 3.162277660168379134e-02
1.294090939106960604e+03 5.623413251903491145e-02
1.414301637507976011e+03 1.000000000000000056e-01
1.587522082285448505e+03 1.778279410038922925e-01
1.827067526130892247e+03 3.162277660168379412e-01
2.098212259940794411e+03 5.623413251903490728e-01
2.364283383246709036e+03 1.000000000000000000e+00
2.617037884726697939e+03 1.778279410038922759e+00
2.858006490871077403e+03 3.162277660168379523e+00
3.093342712494912121e+03 5.623413251903491172e+00
3.330635972638456224e+03 1.000000000000000000e+01
3.577103432546904060e+03 1.778279410038922848e+01
3.841423284050113125e+03 3.162277660168379256e+01
4.128371826378382139e+03 5.623413251903490817e+01
4.444520144391150097e+03 1.000000000000000000e+02
4.792991091555691128e+03 1.778279410038922776e+02
5.192140602880705046e+03 3.162277660168379612e+02
