# Temperature (K), Pressure (bars)
9.579024402747080558e+02 1.000000000000000048e-04
1.019200269180645819e+03 1.778279410038922698e-04
1.080498099349540780e+03 3.162277660168379394e-04
1.137689849177848600e+03 5.623413251903490971e-04
1.186920185953778855e+03 1.000000000000000021e-03
1.225405535056846929e+03 1.778279410038922752e-03
1.258717260180257881e+03 3.162277660168379394e-03
1.292597964377047447e+03 5.623413251903490971e-03
1.344862644510939163e+03 1.000000000000000021e-02
1.438255887622527098e+03 1.778279410038922925e-02
1.568894414196291564e+03 3.162277660168379134e-02
1.716406098260947601e+03 5.623413251903491145e-02
1.847970889994857089e+03 1.000000000000000056e-01
1.957626427086274134e+03 1.778279410038922925e-01
2.067652181468095932e+03 3.162277660168379412e-01
2.210190466956114506e+03 5.623413251903490728e-01
2.417917149581888680e+03 1.000000000000000000e+00
2.658591491557273912e+03 1.778279410038922759e+00
2.893994174638370623e+03 3.162277660168379523e+00
3.127797146162742138e+03 5.623413251903491172e+00
3.365655618220122051e+03 1.000000000000000000e+01
3.613498472968584338e+03 1.778279410038922848e+01
3.879052776869898025e+03 3.162277660168379256e+01
4.168205774301458405e+03 5.623413251903490817e+01
4.487739448093655483e+03 1.000000000000000000e+02
4.840728906650602767e+03 1.778279410038922776e+02
5.246470472492752378e+03 3.162277660168379612e+02
