# Temperature (K), Pressure (bars)
8.789540284207486138e+02 3.162277660168379530e-05
9.276947254203654438e+02 5.623413251903490700e-05
9.764354218524239286e+02 1.000000000000000048e-04
1.021463703537045603e+03 1.778279410038922698e-04
1.064334534871608867e+03 3.162277660168379394e-04
1.103937975894590863e+03 5.623413251903490971e-04
1.136909553917547100e+03 1.000000000000000021e-03
1.165536049635439667e+03 1.778279410038922752e-03
1.194091551981638986e+03 3.162277660168379394e-03
1.224577879836319198e+03 5.623413251903490971e-03
1.259556263445351988e+03 1.000000000000000021e-02
1.299775513396165707e+03 1.778279410038922925e-02
1.343945227912390237e+03 3.162277660168379134e-02
1.385288884511034439e+03 5.623413251903491145e-02
1.443995224610569494e+03 1.000000000000000056e-01
1.550181535849212196e+03 1.778279410038922925e-01
1.716447692301804864e+03 3.162277660168379412e-01
1.954628163791482848e+03 5.623413251903490728e-01
2.227712821960440579e+03 1.000000000000000000e+00
2.493468618819105814e+03 1.778279410038922759e+00
2.748080975040338217e+03 3.162277660168379523e+00
2.993589229841091310e+03 5.623413251903491172e+00
3.237327407181917351e+03 1.000000000000000000e+01
3.487282659199410318e+03 1.778279410038922848e+01
3.752826380208307910e+03 3.162277660168379256e+01
4.038998926517067503e+03 5.623413251903490817e+01
4.352474521219423877e+03 1.000000000000000000e+02
4.696521237467850369e+03 1.778279410038922776e+02
5.088773660814052164e+03 3.162277660168379612e+02
