# Temperature (K), Pressure (bars)
1.603839793421559534e+03 9.999999999999999547e-07
1.615259739821563926e+03 1.778279410038922901e-06
1.626679686246820665e+03 3.162277660168379191e-06
1.643084748422974826e+03 5.623413251903491208e-06
1.664462987965910543e+03 1.000000000000000082e-05
1.693024670357216110e+03 1.778279410038922901e-05
1.729000666199282477e+03 3.162277660168379530e-05
1.770883128212946303e+03 5.623413251903490700e-05
1.819442104387440395e+03 1.000000000000000048e-04
1.873503106934305379e+03 1.778279410038922698e-04
1.931886247460474124e+03 3.162277660168379394e-04
1.995144990491179897e+03 5.623413251903490971e-04
2.063594362022192854e+03 1.000000000000000021e-03
2.140665834985706624e+03 1.778279410038922752e-03
2.235393626079175192e+03 3.162277660168379394e-03
2.348833314987887206e+03 5.623413251903490971e-03
2.472084268188745227e+03 1.000000000000000021e-02
2.601417993938527616e+03 1.778279410038922925e-02
2.738248123824630966e+03 3.162277660168379134e-02
2.884184616690894472e+03 5.623413251903491145e-02
3.041344543691850049e+03 1.000000000000000056e-01
3.212277392126935410e+03 1.778279410038922925e-01
3.399042998707373044e+03 3.162277660168379412e-01
3.602865591775738267e+03 5.623413251903490728e-01
3.826053198488263206e+03 1.000000000000000000e+00
4.074200927829805551e+03 1.778279410038922759e+00
4.356534638104520127e+03 3.162277660168379523e+00
4.680107086090864868e+03 5.623413251903491172e+00
5.074483567331557424e+03 1.000000000000000000e+01
5.576760252877847051e+03 1.778279410038922848e+01
6.256968984163549976e+03 3.162277660168379256e+01
7.243224864284277828e+03 5.623413251903490817e+01
8.680445223328069915e+03 1.000000000000000000e+02
1.055443324703794678e+04 1.778279410038922776e+02
1.280507468316267841e+04 3.162277660168379612e+02
