# Temperature (K), Pressure (bars)
1.601236684318031166e+03 1.000000000000000082e-05
1.625228812995296948e+03 1.778279410038922901e-05
1.649220942392462121e+03 3.162277660168379530e-05
1.677345278392579530e+03 5.623413251903490700e-05
1.735325909028845444e+03 1.000000000000000048e-04
1.794739750212230092e+03 1.778279410038922698e-04
1.839077509089295972e+03 3.162277660168379394e-04
1.883474411762056889e+03 5.623413251903490971e-04
1.927117434372103617e+03 1.000000000000000021e-03
1.966241087168936701e+03 1.778279410038922752e-03
2.002040700661725396e+03 3.162277660168379394e-03
2.035266248075811518e+03 5.623413251903490971e-03
2.065721764426761183e+03 1.000000000000000021e-02
2.094942126574622307e+03 1.778279410038922925e-02
2.127866155953435282e+03 3.162277660168379134e-02
2.166950150869088247e+03 5.623413251903491145e-02
2.221153384769242166e+03 1.000000000000000056e-01
2.287965608770777180e+03 1.778279410038922925e-01
2.397479699907993108e+03 3.162277660168379412e-01
2.591404438726099215e+03 5.623413251903490728e-01
2.811064492197649088e+03 1.000000000000000000e+00
3.015736325693115759e+03 1.778279410038922759e+00
3.225406936181917445e+03 3.162277660168379523e+00
3.444557876845107330e+03 5.623413251903491172e+00
3.676560440971895787e+03 1.000000000000000000e+01
3.926239456391239855e+03 1.778279410038922848e+01
4.200864957668394709e+03 3.162277660168379256e+01
4.506725331451541024e+03 5.623413251903490817e+01
4.851775725497463100e+03 1.000000000000000000e+02
5.239512356398762677e+03 1.778279410038922776e+02
5.694951912869432817e+03 3.162277660168379612e+02
