# Temperature (K), Pressure (bars)
4.033663947552265745e+04 9.999999999999999547e-07
4.881447991712063958e+04 1.778279410038922901e-06
5.906173307666641631e+04 3.162277660168379191e-06
7.072915720388229238e+04 5.623413251903491208e-06
8.311610219006738043e+04 1.000000000000000082e-05
9.526436837984267913e+04 1.778279410038922901e-05
1.063514731880304025e+05 3.162277660168379530e-05
1.160237516740443825e+05 5.623413251903490700e-05
1.243844766334859014e+05 1.000000000000000048e-04
1.317836698181236570e+05 1.778279410038922698e-04
1.386017646811879822e+05 3.162277660168379394e-04
1.451584478261580516e+05 5.623413251903490971e-04
1.517086526320776611e+05 1.000000000000000021e-03
1.584466786578898609e+05 1.778279410038922752e-03
1.655588092136664200e+05 3.162277660168379394e-03
1.732220783007518039e+05 5.623413251903490971e-03
1.816428935901816585e+05 1.000000000000000021e-02
1.910849767080232268e+05 1.778279410038922925e-02
2.018794263497918728e+05 3.162277660168379134e-02
2.144615361068339262e+05 5.623413251903491145e-02
2.294151933402719442e+05 1.000000000000000056e-01
2.474924982004690391e+05 1.778279410038922925e-01
2.696877394986095023e+05 3.162277660168379412e-01
2.972857590865996899e+05 5.623413251903490728e-01
3.319124668765509268e+05 1.000000000000000000e+00
3.756704980254907859e+05 1.778279410038922759e+00
4.311676946935348678e+05 3.162277660168379523e+00
5.016958831164540607e+05 5.623413251903491172e+00
5.912654070783857023e+05 1.000000000000000000e+01
7.047866399991463404e+05 1.778279410038922848e+01
8.481260958616599673e+05 3.162277660168379256e+01
1.027890269283324014e+06 5.623413251903490817e+01
1.250839774531092029e+06 1.000000000000000000e+02
1.522916412812471855e+06 1.778279410038922776e+02
1.847626044025564333e+06 3.162277660168379612e+02
