# Temperature (K), Pressure (bars)
8.252074228412379853e+02 1.000000000000000021e-03
8.641970742895127842e+02 1.778279410038922752e-03
9.031867268261951267e+02 3.162277660168379394e-03
9.411309438045137767e+02 5.623413251903490971e-03
9.791169613143243851e+02 1.000000000000000021e-02
1.018132513201296433e+03 1.778279410038922925e-02
1.058370075328006806e+03 3.162277660168379134e-02
1.101484932770269324e+03 5.623413251903491145e-02
1.150680097612013014e+03 1.000000000000000056e-01
1.210479412355256727e+03 1.778279410038922925e-01
1.285880747568723564e+03 3.162277660168379412e-01
1.386901099972079010e+03 5.623413251903490728e-01
1.538156714099028250e+03 1.000000000000000000e+00
1.759135117258224454e+03 1.778279410038922759e+00
2.036204697833673208e+03 3.162277660168379523e+00
2.335126474867064189e+03 5.623413251903491172e+00
2.631781268403914964e+03 1.000000000000000000e+01
2.922219505416226639e+03 1.778279410038922848e+01
3.213219638178245077e+03 3.162277660168379256e+01
3.509136453857679953e+03 5.623413251903490817e+01
3.817950876807245095e+03 1.000000000000000000e+02
4.144511896422483005e+03 1.778279410038922776e+02
4.503617421192454458e+03 3.162277660168379612e+02
