# Temperature (K), Pressure (bars)
1.957836005925520112e+03 1.778279410038922901e-06
1.959799023123724282e+03 3.162277660168379191e-06
1.961762046100816406e+03 5.623413251903491208e-06
1.968720943070501335e+03 1.000000000000000082e-05
1.981639574097681816e+03 1.778279410038922901e-05
2.001078616349514277e+03 3.162277660168379530e-05
2.027110859645504888e+03 5.623413251903490700e-05
2.058007716108495060e+03 1.000000000000000048e-04
2.092272250799685025e+03 1.778279410038922698e-04
2.129588939376000326e+03 3.162277660168379394e-04
2.170063039329508683e+03 5.623413251903490971e-04
2.214322558670629860e+03 1.000000000000000021e-03
2.262893691972901706e+03 1.778279410038922752e-03
2.318535236672824340e+03 3.162277660168379394e-03
2.380677186580770467e+03 5.623413251903490971e-03
2.457750168981462139e+03 1.000000000000000021e-02
2.564114353554950412e+03 1.778279410038922925e-02
2.688106090006689101e+03 3.162277660168379134e-02
2.818754458780838831e+03 5.623413251903491145e-02
2.960076107263284030e+03 1.000000000000000056e-01
3.114022789159432705e+03 1.778279410038922925e-01
3.283002198048441187e+03 3.162277660168379412e-01
3.469429368089806303e+03 5.623413251903490728e-01
3.675153570991153629e+03 1.000000000000000000e+00
3.902283673354456369e+03 1.778279410038922759e+00
4.155233652369286574e+03 3.162277660168379523e+00
4.441955849725527514e+03 5.623413251903491172e+00
4.774547256175140319e+03 1.000000000000000000e+01
5.168465768833808397e+03 1.778279410038922848e+01
5.655297319947265350e+03 3.162277660168379256e+01
6.282965746701063836e+03 5.623413251903490817e+01
7.137763283481807775e+03 1.000000000000000000e+02
8.355789126099431087e+03 1.778279410038922776e+02
1.000000000000000000e+04 3.162277660168379612e+02
