# Temperature (K), Pressure (bars)
1.004819817798422037e+03 3.162277660168379394e-04
1.064387725692085951e+03 5.623413251903490971e-04
1.123955636495021281e+03 1.000000000000000021e-03
1.182445114664031735e+03 1.778279410038922752e-03
1.240063086986587678e+03 3.162277660168379394e-03
1.296499834973641782e+03 5.623413251903490971e-03
1.357209831801762675e+03 1.000000000000000021e-02
1.430930077739237277e+03 1.778279410038922925e-02
1.510635358917197209e+03 3.162277660168379134e-02
1.593656531911964976e+03 5.623413251903491145e-02
1.691724843809012327e+03 1.000000000000000056e-01
1.793814783049521111e+03 1.778279410038922925e-01
1.894587377087147615e+03 3.162277660168379412e-01
2.010360163818658975e+03 5.623413251903490728e-01
2.155136806965681444e+03 1.000000000000000000e+00
2.359757799703899764e+03 1.778279410038922759e+00
2.623520955101903382e+03 3.162277660168379523e+00
2.891254976769808763e+03 5.623413251903491172e+00
3.144791390676880837e+03 1.000000000000000000e+01
3.400849768673078415e+03 1.778279410038922848e+01
3.668433030064099512e+03 3.162277660168379256e+01
3.954101897076682690e+03 5.623413251903490817e+01
4.264762936755519149e+03 1.000000000000000000e+02
4.603640937259624479e+03 1.778279410038922776e+02
4.988285723907383726e+03 3.162277660168379612e+02
