# Temperature (K), Pressure (bars)
9.548506271593718111e+02 3.162277660168379394e-04
1.012413850970525118e+03 5.623413251903490971e-04
1.069977075368001579e+03 1.000000000000000021e-03
1.122662750342994968e+03 1.778279410038922752e-03
1.169041377926152563e+03 3.162277660168379394e-03
1.208697125592864495e+03 5.623413251903490971e-03
1.239910494331891869e+03 1.000000000000000021e-02
1.266738436028622345e+03 1.778279410038922925e-02
1.296530161459882265e+03 3.162277660168379134e-02
1.333353441476253238e+03 5.623413251903491145e-02
1.378471375295529469e+03 1.000000000000000056e-01
1.430777934233423366e+03 1.778279410038922925e-01
1.487098486327039609e+03 3.162277660168379412e-01
1.564938185671409656e+03 5.623413251903490728e-01
1.678883214789802651e+03 1.000000000000000000e+00
1.847535104554284771e+03 1.778279410038922759e+00
2.098568517581616106e+03 3.162277660168379523e+00
2.391558856409835698e+03 5.623413251903491172e+00
2.682005765299989889e+03 1.000000000000000000e+01
2.969272027919362245e+03 1.778279410038922848e+01
3.257254933591039844e+03 3.162277660168379256e+01
3.551331768262190053e+03 5.623413251903490817e+01
3.859473981324290435e+03 1.000000000000000000e+02
4.186595543849776732e+03 1.778279410038922776e+02
4.547344101539949406e+03 3.162277660168379612e+02
