# Temperature (K), Pressure (bars)
1.109420262568483167e+03 9.999999999999999547e-07
1.174145576974237656e+03 1.778279410038922901e-06
1.238870891380890498e+03 3.162277660168379191e-06
1.309804385624458973e+03 5.623413251903491208e-06
1.375732216943329604e+03 1.000000000000000082e-05
1.432554708798363663e+03 1.778279410038922901e-05
1.493227933218255203e+03 3.162277660168379530e-05
1.572884907549957916e+03 5.623413251903490700e-05
1.656943642078525045e+03 1.000000000000000048e-04
1.729399232926190280e+03 1.778279410038922698e-04
1.798997716957377179e+03 3.162277660168379394e-04
1.869940410731589054e+03 5.623413251903490971e-04
1.943368559071440359e+03 1.000000000000000021e-03
2.024487855948035303e+03 1.778279410038922752e-03
2.124563649535085460e+03 3.162277660168379394e-03
2.250747977209411147e+03 5.623413251903490971e-03
2.390077766925862306e+03 1.000000000000000021e-02
2.532873141854887308e+03 1.778279410038922925e-02
2.681070852422258213e+03 3.162277660168379134e-02
2.836443979512464011e+03 5.623413251903491145e-02
3.000919318651238427e+03 1.000000000000000056e-01
3.176033044385033008e+03 1.778279410038922925e-01
3.362525031750271410e+03 3.162277660168379412e-01
3.561583829493687517e+03 5.623413251903490728e-01
3.776695057969719528e+03 1.000000000000000000e+00
4.013916363361202457e+03 1.778279410038922759e+00
4.281615478278627052e+03 3.162277660168379523e+00
4.591337997497558717e+03 5.623413251903491172e+00
4.957220185708055396e+03 1.000000000000000000e+01
5.409584352595048585e+03 1.778279410038922848e+01
5.993470800873373264e+03 3.162277660168379256e+01
6.789167124760316256e+03 5.623413251903490817e+01
7.938161749939290530e+03 1.000000000000000000e+02
9.569528266809698835e+03 1.778279410038922776e+02
1.159509164379369759e+04 3.162277660168379612e+02
