# Temperature (K), Pressure (bars)
2.222602241019722896e+03 9.999999999999999547e-07
2.246474930299881180e+03 1.778279410038922901e-06
2.270347619580039009e+03 3.162277660168379191e-06
2.296526193750409220e+03 5.623413251903491208e-06
2.325975845030896380e+03 1.000000000000000082e-05
2.357803949951861796e+03 1.778279410038922901e-05
2.389961345933929806e+03 3.162277660168379530e-05
2.419983762949541415e+03 5.623413251903490700e-05
2.445739068937609318e+03 1.000000000000000048e-04
2.467084573702883063e+03 1.778279410038922698e-04
2.487064306022665278e+03 3.162277660168379394e-04
2.510668163976934466e+03 5.623413251903490971e-04
2.542115977022781863e+03 1.000000000000000021e-03
2.583887869511308054e+03 1.778279410038922752e-03
2.637508753664280448e+03 3.162277660168379394e-03
2.704416887914208928e+03 5.623413251903490971e-03
2.786581849204845639e+03 1.000000000000000021e-02
2.888521187005257161e+03 1.778279410038922925e-02
3.012592231007302871e+03 3.162277660168379134e-02
3.155782871635382890e+03 5.623413251903491145e-02
3.319864321269228185e+03 1.000000000000000056e-01
3.506359139300046991e+03 1.778279410038922925e-01
3.715136829875174044e+03 3.162277660168379412e-01
3.960567713184494551e+03 5.623413251903490728e-01
4.243446996866406153e+03 1.000000000000000000e+00
4.593055621523581067e+03 1.778279410038922759e+00
5.063740163116438453e+03 3.162277660168379523e+00
5.761106377884858375e+03 5.623413251903491172e+00
6.859390016340938018e+03 1.000000000000000000e+01
8.424693329474092025e+03 1.778279410038922848e+01
1.000000000000000000e+04 3.162277660168379256e+01
1.000000000000000000e+04 5.623413251903490817e+01
1.000000000000000000e+04 1.000000000000000000e+02
1.000000000000000000e+04 1.778279410038922776e+02
1.000000000000000000e+04 3.162277660168379612e+02
