# Temperature (K), Pressure (bars)
1.028069108222198338e+03 9.999999999999999547e-07
1.045057013113636913e+03 1.778279410038922901e-06
1.062044918016018073e+03 3.162277660168379191e-06
1.084350513343354805e+03 5.623413251903491208e-06
1.113733495807660802e+03 1.000000000000000082e-05
1.147705060714232332e+03 1.778279410038922901e-05
1.185610614188341515e+03 3.162277660168379530e-05
1.228401567927804535e+03 5.623413251903490700e-05
1.276217389761681716e+03 1.000000000000000048e-04
1.330796305481034778e+03 1.778279410038922698e-04
1.394947639500089736e+03 3.162277660168379394e-04
1.465337147792091855e+03 5.623413251903490971e-04
1.542901336204201016e+03 1.000000000000000021e-03
1.634375223046288511e+03 1.778279410038922752e-03
1.731157679324860965e+03 3.162277660168379394e-03
1.827296643799732692e+03 5.623413251903490971e-03
1.933224267444884617e+03 1.000000000000000021e-02
2.071821164505774959e+03 1.778279410038922925e-02
2.247351713472840856e+03 3.162277660168379134e-02
2.428254481824041250e+03 5.623413251903491145e-02
2.600302296692760592e+03 1.000000000000000056e-01
2.771380813972644319e+03 1.778279410038922925e-01
2.945451844320492455e+03 3.162277660168379412e-01
3.124831638257477152e+03 5.623413251903490728e-01
3.311213772785285983e+03 1.000000000000000000e+00
3.507360475797669551e+03 1.778279410038922759e+00
3.717443652372733595e+03 3.162277660168379523e+00
3.946331909124433878e+03 5.623413251903491172e+00
4.199493728799299788e+03 1.000000000000000000e+01
4.483539571612569489e+03 1.778279410038922848e+01
4.807314285195958291e+03 3.162277660168379256e+01
5.186368084257198461e+03 5.623413251903490817e+01
5.633293618894127576e+03 1.000000000000000000e+02
6.171243677516828939e+03 1.778279410038922776e+02
6.835289065684383786e+03 3.162277660168379612e+02
