# Temperature (K), Pressure (bars)
1.683720996708544135e+03 1.000000000000000082e-05
1.698094285266698989e+03 1.778279410038922901e-05
1.712467573902693175e+03 3.162277660168379530e-05
1.731790259333092081e+03 5.623413251903490700e-05
1.755683539993928207e+03 1.000000000000000048e-04
1.784109581918790809e+03 1.778279410038922698e-04
1.819143858303995330e+03 3.162277660168379394e-04
1.858708134254946799e+03 5.623413251903490971e-04
1.901297774107223631e+03 1.000000000000000021e-03
1.947270172421232019e+03 1.778279410038922752e-03
1.996658496179175017e+03 3.162277660168379394e-03
2.049911081362919504e+03 5.623413251903490971e-03
2.107650596060235785e+03 1.000000000000000021e-02
2.170321851950944620e+03 1.778279410038922925e-02
2.241812533154050470e+03 3.162277660168379134e-02
2.326134355209915611e+03 5.623413251903491145e-02
2.443038611037170540e+03 1.000000000000000056e-01
2.605180508521040792e+03 1.778279410038922925e-01
2.780483159247848562e+03 3.162277660168379412e-01
2.953070487741777015e+03 5.623413251903490728e-01
3.134117111347331047e+03 1.000000000000000000e+00
3.326835206877397468e+03 1.778279410038922759e+00
3.533078553658188412e+03 3.162277660168379523e+00
3.755044334112126307e+03 5.623413251903491172e+00
3.996525231917908059e+03 1.000000000000000000e+01
4.262939156405675931e+03 1.778279410038922848e+01
4.561111752176642767e+03 3.162277660168379256e+01
4.900055445320082072e+03 5.623413251903490817e+01
5.295782681630176739e+03 1.000000000000000000e+02
5.760338845531829065e+03 1.778279410038922776e+02
6.315977792674185366e+03 3.162277660168379612e+02
