# Temperature (K), Pressure (bars)
1.896067808313169280e+03 9.999999999999999547e-07
1.905239700968509624e+03 1.778279410038922901e-06
1.914411593623849967e+03 3.162277660168379191e-06
1.930110059843872250e+03 5.623413251903491208e-06
1.952248647236950092e+03 1.000000000000000082e-05
1.979967240127774403e+03 1.778279410038922901e-05
2.013935300580072408e+03 3.162277660168379530e-05
2.051844253088446749e+03 5.623413251903490700e-05
2.089794487825578472e+03 1.000000000000000048e-04
2.126222255068049890e+03 1.778279410038922698e-04
2.161904770954944979e+03 3.162277660168379394e-04
2.198245857316356251e+03 5.623413251903490971e-04
2.237340520184602610e+03 1.000000000000000021e-03
2.280817779702985717e+03 1.778279410038922752e-03
2.331576718398025150e+03 3.162277660168379394e-03
2.389956619135592064e+03 5.623413251903490971e-03
2.464069336855749043e+03 1.000000000000000021e-02
2.567233556843581937e+03 1.778279410038922925e-02
2.689861595380797098e+03 3.162277660168379134e-02
2.821155172002143900e+03 5.623413251903491145e-02
2.963491201733253547e+03 1.000000000000000056e-01
3.118695229493110219e+03 1.778279410038922925e-01
3.289055766089434201e+03 3.162277660168379412e-01
3.476783388279935934e+03 5.623413251903490728e-01
3.683617482518437100e+03 1.000000000000000000e+00
3.911815010895667456e+03 1.778279410038922759e+00
4.166060529071020937e+03 3.162277660168379523e+00
4.454570756713534138e+03 5.623413251903491172e+00
4.789688927729629540e+03 1.000000000000000000e+01
5.187109696424114190e+03 1.778279410038922848e+01
5.678625184664676453e+03 3.162277660168379256e+01
6.310881192575049681e+03 5.623413251903490817e+01
7.166250973914734459e+03 1.000000000000000000e+02
8.384797960810674340e+03 1.778279410038922776e+02
1.000000000000000000e+04 3.162277660168379612e+02
