# Temperature (K), Pressure (bars)
1.116875314652678981e+03 9.999999999999999547e-07
1.126800406552617915e+03 1.778279410038922901e-06
1.136725498456940159e+03 3.162277660168379191e-06
1.152409860363808093e+03 5.623413251903491208e-06
1.174864822997693864e+03 1.000000000000000082e-05
1.204264864460867784e+03 1.778279410038922901e-05
1.239442902669804653e+03 3.162277660168379530e-05
1.279120630627768151e+03 5.623413251903490700e-05
1.323458635663895620e+03 1.000000000000000048e-04
1.372959817641413338e+03 1.778279410038922698e-04
1.430991532705024383e+03 3.162277660168379394e-04
1.497366134043453712e+03 5.623413251903490971e-04
1.571473206100018615e+03 1.000000000000000021e-03
1.659818601270538466e+03 1.778279410038922752e-03
1.756243609952003908e+03 3.162277660168379394e-03
1.853102979143816356e+03 5.623413251903490971e-03
1.951022335366214065e+03 1.000000000000000021e-02
2.070680705845656576e+03 1.778279410038922925e-02
2.234446626998948886e+03 3.162277660168379134e-02
2.412494841773227563e+03 5.623413251903491145e-02
2.581514100287718975e+03 1.000000000000000056e-01
2.750022230418691379e+03 1.778279410038922925e-01
2.921939837378670290e+03 3.162277660168379412e-01
3.100058098685735786e+03 5.623413251903490728e-01
3.286291854164272991e+03 1.000000000000000000e+00
3.482683221065502948e+03 1.778279410038922759e+00
3.692551317604366886e+03 3.162277660168379523e+00
3.920466389953108774e+03 5.623413251903491172e+00
4.171825882195004851e+03 1.000000000000000000e+01
4.453065931139417444e+03 1.778279410038922848e+01
4.772686601543012330e+03 3.162277660168379256e+01
5.145712625848821517e+03 5.623413251903490817e+01
5.584075622975919032e+03 1.000000000000000000e+02
6.109031757209940224e+03 1.778279410038922776e+02
6.752216116214010071e+03 3.162277660168379612e+02
