# Temperature (K), Pressure (bars)
1.153250055997667914e+03 9.999999999999999547e-07
1.305330510967970895e+03 1.778279410038922901e-06
1.457410965953712548e+03 3.162277660168379191e-06
1.575286327976859866e+03 5.623413251903491208e-06
1.656714152713817157e+03 1.000000000000000082e-05
1.734098055390081981e+03 1.778279410038922901e-05
1.808935856259034153e+03 3.162277660168379530e-05
1.869484160083732604e+03 5.623413251903490700e-05
1.920030512788202486e+03 1.000000000000000048e-04
1.962963684579696746e+03 1.778279410038922698e-04
2.001081580026482698e+03 3.162277660168379394e-04
2.037533857976153968e+03 5.623413251903490971e-04
2.073939135412131236e+03 1.000000000000000021e-03
2.112097159895749428e+03 1.778279410038922752e-03
2.154330996804842016e+03 3.162277660168379394e-03
2.201883489593531522e+03 5.623413251903490971e-03
2.258961865853027575e+03 1.000000000000000021e-02
2.326141813610533063e+03 1.778279410038922925e-02
2.415703611545552121e+03 3.162277660168379134e-02
2.544994506589060620e+03 5.623413251903491145e-02
2.694700942326029235e+03 1.000000000000000056e-01
2.849033801224457420e+03 1.778279410038922925e-01
3.014017161308552204e+03 3.162277660168379412e-01
3.191110239243066644e+03 5.623413251903490728e-01
3.380341077572339600e+03 1.000000000000000000e+00
3.582272954853809097e+03 1.778279410038922759e+00
3.799678368167709777e+03 3.162277660168379523e+00
4.037330210970461849e+03 5.623413251903491172e+00
4.301321411589968193e+03 1.000000000000000000e+01
4.599207525077512400e+03 1.778279410038922848e+01
4.941126987901765460e+03 3.162277660168379256e+01
5.344476653656588496e+03 5.623413251903490817e+01
5.826019034959405872e+03 1.000000000000000000e+02
6.414415323261997401e+03 1.778279410038922776e+02
7.154944757940410454e+03 3.162277660168379612e+02
