# Temperature (K), Pressure (bars)
8.851973335596019297e+02 5.623413251903490971e-04
9.223051610755414913e+02 1.000000000000000021e-03
9.594129888811513638e+02 1.778279410038922752e-03
9.972274974850184890e+02 3.162277660168379394e-03
1.037036975131580903e+03 5.623413251903490971e-03
1.078476483299386928e+03 1.000000000000000021e-02
1.121194535595278012e+03 1.778279410038922925e-02
1.166103989892275422e+03 3.162277660168379134e-02
1.215653068954257833e+03 5.623413251903491145e-02
1.272686685778653782e+03 1.000000000000000056e-01
1.341712137359121925e+03 1.778279410038922925e-01
1.446191722524848501e+03 3.162277660168379412e-01
1.626426464777661977e+03 5.623413251903490728e-01
1.880385846740902025e+03 1.000000000000000000e+00
2.160165360408236666e+03 1.778279410038922759e+00
2.439396298928704709e+03 3.162277660168379523e+00
2.713621563099923151e+03 5.623413251903491172e+00
2.980735712526819043e+03 1.000000000000000000e+01
3.245798607927988542e+03 1.778279410038922848e+01
3.518108252532783808e+03 3.162277660168379256e+01
3.804315659910415889e+03 5.623413251903490817e+01
4.111745420553620534e+03 1.000000000000000000e+02
4.444041939593679672e+03 1.778279410038922776e+02
4.817423176584909925e+03 3.162277660168379612e+02
