# Temperature (K), Pressure (bars)
9.435910049248773248e+02 9.999999999999999547e-07
9.597688826304577105e+02 1.778279410038922901e-06
9.759467603570815299e+02 3.162277660168379191e-06
9.973184458245896167e+02 5.623413251903491208e-06
1.024539673997347791e+03 1.000000000000000082e-05
1.057031185219848112e+03 1.778279410038922901e-05
1.095097996651389167e+03 3.162277660168379530e-05
1.137914210072427522e+03 5.623413251903490700e-05
1.184699321926032326e+03 1.000000000000000048e-04
1.235545000538116255e+03 1.778279410038922698e-04
1.289705855962349915e+03 3.162277660168379394e-04
1.348165644709246862e+03 5.623413251903490971e-04
1.414931028392900771e+03 1.000000000000000021e-03
1.492518628039324085e+03 1.778279410038922752e-03
1.582701803831794678e+03 3.162277660168379394e-03
1.692112183456286857e+03 5.623413251903490971e-03
1.811455985713211248e+03 1.000000000000000021e-02
1.955878968369981976e+03 1.778279410038922925e-02
2.151907426870323434e+03 3.162277660168379134e-02
2.355958373542197933e+03 5.623413251903491145e-02
2.539205845004335515e+03 1.000000000000000056e-01
2.716654252169374558e+03 1.778279410038922925e-01
2.893646204703611147e+03 3.162277660168379412e-01
3.073499410290824017e+03 5.623413251903490728e-01
3.258594507474684178e+03 1.000000000000000000e+00
3.452404523337034789e+03 1.778279410038922759e+00
3.659231387909994737e+03 3.162277660168379523e+00
3.883821102446623172e+03 5.623413251903491172e+00
4.131451310958271279e+03 1.000000000000000000e+01
4.408375745825467675e+03 1.778279410038922848e+01
4.722418515153427506e+03 3.162277660168379256e+01
5.084238327245423534e+03 5.623413251903490817e+01
5.511419553212876963e+03 1.000000000000000000e+02
6.020685540185427271e+03 1.778279410038922776e+02
6.641748204770644406e+03 3.162277660168379612e+02
