# Temperature (K), Pressure (bars)
2.180671666008297052e+03 9.999999999999999547e-07
2.196353511356453510e+03 1.778279410038922901e-06
2.212035356704610876e+03 3.162277660168379191e-06
2.234778695971644083e+03 5.623413251903491208e-06
2.261402908415054753e+03 1.000000000000000082e-05
2.289864713761797248e+03 1.778279410038922901e-05
2.321942777617211505e+03 3.162277660168379530e-05
2.358349963484582076e+03 5.623413251903490700e-05
2.399339069494343221e+03 1.000000000000000048e-04
2.445133242632301517e+03 1.778279410038922698e-04
2.494458353998652456e+03 3.162277660168379394e-04
2.544566435752962661e+03 5.623413251903490971e-04
2.593037166629985222e+03 1.000000000000000021e-03
2.638025927536318704e+03 1.778279410038922752e-03
2.677290525528438593e+03 3.162277660168379394e-03
2.710461377613069544e+03 5.623413251903490971e-03
2.739794005374141761e+03 1.000000000000000021e-02
2.774454423264421166e+03 1.778279410038922925e-02
2.817650733081282397e+03 3.162277660168379134e-02
2.884503127340348328e+03 5.623413251903491145e-02
3.000790529512656576e+03 1.000000000000000056e-01
3.149300917585844672e+03 1.778279410038922925e-01
3.311496019425903341e+03 3.162277660168379412e-01
3.493916299766272459e+03 5.623413251903490728e-01
3.699622602948108124e+03 1.000000000000000000e+00
3.930826914105184187e+03 1.778279410038922759e+00
4.191028061744039405e+03 3.162277660168379523e+00
4.487521967280549688e+03 5.623413251903491172e+00
4.826073016029137762e+03 1.000000000000000000e+01
5.234676232605436780e+03 1.778279410038922848e+01
5.745532192366160416e+03 3.162277660168379256e+01
6.415562580254807472e+03 5.623413251903490817e+01
7.347470227661248828e+03 1.000000000000000000e+02
8.686223759399957999e+03 1.778279410038922776e+02
1.000000000000000000e+04 3.162277660168379612e+02
