# Temperature (K), Pressure (bars)
9.004885016238657727e+02 3.162277660168379394e-04
9.570632000674480651e+02 5.623413251903490971e-04
1.013637899845218612e+03 1.000000000000000021e-03
1.067419713005528592e+03 1.778279410038922752e-03
1.120125958802531841e+03 3.162277660168379394e-03
1.173967588703934098e+03 5.623413251903490971e-03
1.230776672719086719e+03 1.000000000000000021e-02
1.294393685762584028e+03 1.778279410038922925e-02
1.369233820463617803e+03 3.162277660168379134e-02
1.466373957232187422e+03 5.623413251903491145e-02
1.602593873742485812e+03 1.000000000000000056e-01
1.799448303200154669e+03 1.778279410038922925e-01
2.053456571948428063e+03 3.162277660168379412e-01
2.315315325408831541e+03 5.623413251903490728e-01
2.557842089391378067e+03 1.000000000000000000e+00
2.788166761648971715e+03 1.778279410038922759e+00
3.012411221057404873e+03 3.162277660168379523e+00
3.237288368536088910e+03 5.623413251903491172e+00
3.469218858234150503e+03 1.000000000000000000e+01
3.714393860876751205e+03 1.778279410038922848e+01
3.980971231291830918e+03 3.162277660168379256e+01
4.273740062849314199e+03 5.623413251903490817e+01
4.599599699988355496e+03 1.000000000000000000e+02
4.962045523868246164e+03 1.778279410038922776e+02
5.381045746347846944e+03 3.162277660168379612e+02
