# Temperature (K), Pressure (bars)
2.504284232676613556e+03 1.778279410038922901e-06
2.507787419099725412e+03 3.162277660168379191e-06
2.511457207355571882e+03 5.623413251903491208e-06
2.527435771785306315e+03 1.000000000000000082e-05
2.553184529225809456e+03 1.778279410038922901e-05
2.582775706784430440e+03 3.162277660168379530e-05
2.614544036126218089e+03 5.623413251903490700e-05
2.647540939347949461e+03 1.000000000000000048e-04
2.680699540791761137e+03 1.778279410038922698e-04
2.712949444798502554e+03 3.162277660168379394e-04
2.742781428592024440e+03 5.623413251903490971e-04
2.766908379844961019e+03 1.000000000000000021e-03
2.780736907122495268e+03 1.778279410038922752e-03
2.784998967670661841e+03 3.162277660168379394e-03
2.789357956912893769e+03 5.623413251903490971e-03
2.805569725482809645e+03 1.000000000000000021e-02
2.836797924181579219e+03 1.778279410038922925e-02
2.884650853203116640e+03 3.162277660168379134e-02
2.945954804948422861e+03 5.623413251903491145e-02
3.036276150647737268e+03 1.000000000000000056e-01
3.178633878172939148e+03 1.778279410038922925e-01
3.347402410175352998e+03 3.162277660168379412e-01
3.526351407348220164e+03 5.623413251903490728e-01
3.728535605761637271e+03 1.000000000000000000e+00
3.959169534168710925e+03 1.778279410038922759e+00
4.223205037622667078e+03 3.162277660168379523e+00
4.527815638935820061e+03 5.623413251903491172e+00
4.876475349733698749e+03 1.000000000000000000e+01
5.301694181527047476e+03 1.778279410038922848e+01
5.841423967160768370e+03 3.162277660168379256e+01
6.565611817746592351e+03 5.623413251903490817e+01
7.595241208672767243e+03 1.000000000000000000e+02
9.069794975245358728e+03 1.778279410038922776e+02
1.096581602652454785e+04 3.162277660168379612e+02
