# Temperature (K), Pressure (bars)
9.766345092593691106e+02 5.623413251903490700e-05
1.028163850464160305e+03 1.000000000000000048e-04
1.079693193687350458e+03 1.778279410038922698e-04
1.131300979237229058e+03 3.162277660168379394e-04
1.183484639901625087e+03 5.623413251903490971e-04
1.237463735207266154e+03 1.000000000000000021e-03
1.293733780615674277e+03 1.778279410038922752e-03
1.353221251481676973e+03 3.162277660168379394e-03
1.419013045582137920e+03 5.623413251903490971e-03
1.493097642738673585e+03 1.000000000000000021e-02
1.583575685164384595e+03 1.778279410038922925e-02
1.696522085580193561e+03 3.162277660168379134e-02
1.860710359314048446e+03 5.623413251903491145e-02
2.093274878199891646e+03 1.000000000000000056e-01
2.332874409912543797e+03 1.778279410038922925e-01
2.544362616173089464e+03 3.162277660168379412e-01
2.744663374137237952e+03 5.623413251903490728e-01
2.941457938453144379e+03 1.000000000000000000e+00
3.140121525338738138e+03 1.778279410038922759e+00
3.344981983811493137e+03 3.162277660168379523e+00
3.560454108987778909e+03 5.623413251903491172e+00
3.791373779204700895e+03 1.000000000000000000e+01
4.043050305563559050e+03 1.778279410038922848e+01
4.323483991017997141e+03 3.162277660168379256e+01
4.638300011024424748e+03 5.623413251903490817e+01
4.996027708701233678e+03 1.000000000000000000e+02
5.400720083722034360e+03 1.778279410038922776e+02
5.879907036179045463e+03 3.162277660168379612e+02
