# Temperature (K), Pressure (bars)
1.529407175124676996e+03 9.999999999999999547e-07
1.565495948357509860e+03 1.778279410038922901e-06
1.601584721592951610e+03 3.162277660168379191e-06
1.642992313942838564e+03 5.623413251903491208e-06
1.689321092648843887e+03 1.000000000000000082e-05
1.738856439962038621e+03 1.778279410038922901e-05
1.790765619527108129e+03 3.162277660168379530e-05
1.842369860121799775e+03 5.623413251903490700e-05
1.891934744664361460e+03 1.000000000000000048e-04
1.940792879170055585e+03 1.778279410038922698e-04
1.991100146090699582e+03 3.162277660168379394e-04
2.044103090720058617e+03 5.623413251903490971e-04
2.101012001083485302e+03 1.000000000000000021e-03
2.162638297334689469e+03 1.778279410038922752e-03
2.234215884276371980e+03 3.162277660168379394e-03
2.327110222538289236e+03 5.623413251903490971e-03
2.441232493932729994e+03 1.000000000000000021e-02
2.566582591287596642e+03 1.778279410038922925e-02
2.699760433511150950e+03 3.162277660168379134e-02
2.842039850052917700e+03 5.623413251903491145e-02
2.995023178692898910e+03 1.000000000000000056e-01
3.160769945966298110e+03 1.778279410038922925e-01
3.341304706270561837e+03 3.162277660168379412e-01
3.538006152157733595e+03 5.623413251903490728e-01
3.752749961066234391e+03 1.000000000000000000e+00
3.989520144146177699e+03 1.778279410038922759e+00
4.255481477817435007e+03 3.162277660168379523e+00
4.561351484688408163e+03 5.623413251903491172e+00
4.918900562332240952e+03 1.000000000000000000e+01
5.357606596081288444e+03 1.778279410038922848e+01
5.917012601444303073e+03 3.162277660168379256e+01
6.662255834387407958e+03 5.623413251903490817e+01
7.708425123471140978e+03 1.000000000000000000e+02
9.217137742338294629e+03 1.778279410038922776e+02
1.114596920403993317e+04 3.162277660168379612e+02
