# Temperature (K), Pressure (bars)
1.660254893685293837e+03 1.778279410038922901e-05
1.672258049515510265e+03 3.162277660168379530e-05
1.684261207704991421e+03 5.623413251903490700e-05
1.703476418952863924e+03 1.000000000000000048e-04
1.729547999050025510e+03 1.778279410038922698e-04
1.759675192813865806e+03 3.162277660168379394e-04
1.795500242053171405e+03 5.623413251903490971e-04
1.836457485137336562e+03 1.000000000000000021e-03
1.880280031704929343e+03 1.778279410038922752e-03
1.927270600022663757e+03 3.162277660168379394e-03
1.977560447418358763e+03 5.623413251903490971e-03
2.031277266222050230e+03 1.000000000000000021e-02
2.089773448823625586e+03 1.778279410038922925e-02
2.152793068155505352e+03 3.162277660168379134e-02
2.226219561568012978e+03 5.623413251903491145e-02
2.311721024059786487e+03 1.000000000000000056e-01
2.429350671859353042e+03 1.778279410038922925e-01
2.603010583786824554e+03 3.162277660168379412e-01
2.795362499082409158e+03 5.623413251903490728e-01
2.981371481236786167e+03 1.000000000000000000e+00
3.174315003507462279e+03 1.778279410038922759e+00
3.378341615249650204e+03 3.162277660168379523e+00
3.596095039164056288e+03 5.623413251903491172e+00
3.830654553741597283e+03 1.000000000000000000e+01
4.086546862114193118e+03 1.778279410038922848e+01
4.371155269298164967e+03 3.162277660168379256e+01
4.691490763132022039e+03 5.623413251903490817e+01
5.056626095233373235e+03 1.000000000000000000e+02
5.471482243321449459e+03 1.778279410038922776e+02
5.964336820700153112e+03 3.162277660168379612e+02
