# Temperature (K), Pressure (bars)
1.260991535136682614e+03 9.999999999999999547e-07
1.299038271525938853e+03 1.778279410038922901e-06
1.337085007915194865e+03 3.162277660168379191e-06
1.378444603307148327e+03 5.623413251903491208e-06
1.425091977501801466e+03 1.000000000000000082e-05
1.479119224944763573e+03 1.778279410038922901e-05
1.545279111227084059e+03 3.162277660168379530e-05
1.618475968798479698e+03 5.623413251903490700e-05
1.691533672731332899e+03 1.000000000000000048e-04
1.766591655855799672e+03 1.778279410038922698e-04
1.847927170285525335e+03 3.162277660168379394e-04
1.937163694466746620e+03 5.623413251903490971e-04
2.040028960659506311e+03 1.000000000000000021e-03
2.162860175452818112e+03 1.778279410038922752e-03
2.298048889121427692e+03 3.162277660168379394e-03
2.436959578515825797e+03 5.623413251903490971e-03
2.579922123675538842e+03 1.000000000000000021e-02
2.729055080204760088e+03 1.778279410038922925e-02
2.886765590554403843e+03 3.162277660168379134e-02
3.055751722378520753e+03 5.623413251903491145e-02
3.238929571937032051e+03 1.000000000000000056e-01
3.438977724540363852e+03 1.778279410038922925e-01
3.659302461407612100e+03 3.162277660168379412e-01
3.906778614189554901e+03 5.623413251903490728e-01
4.196527944530074819e+03 1.000000000000000000e+00
4.527073990845300614e+03 1.778279410038922759e+00
4.960400683478220344e+03 3.162277660168379523e+00
5.583535956212572273e+03 5.623413251903491172e+00
6.554767107285430029e+03 1.000000000000000000e+01
8.004650259134993576e+03 1.778279410038922848e+01
9.797816967593944355e+03 3.162277660168379256e+01
1.189098191725105244e+04 5.623413251903490817e+01
1.446867047202788672e+04 1.000000000000000000e+02
1.761593266048528312e+04 1.778279410038922776e+02
2.137025063047348158e+04 3.162277660168379612e+02
