# Temperature (K), Pressure (bars)
2.163808347741642137e+03 9.999999999999999547e-07
2.195581889408038933e+03 1.778279410038922901e-06
2.227355431074435728e+03 3.162277660168379191e-06
2.263785924973351484e+03 5.623413251903491208e-06
2.304216647553396342e+03 1.000000000000000082e-05
2.347787129912422188e+03 1.778279410038922901e-05
2.392941223230517608e+03 3.162277660168379530e-05
2.437290343799420953e+03 5.623413251903490700e-05
2.478979064579259102e+03 1.000000000000000048e-04
2.516727053743478791e+03 1.778279410038922698e-04
2.550852269802229330e+03 3.162277660168379394e-04
2.583331667116366589e+03 5.623413251903490971e-04
2.616921838739172927e+03 1.000000000000000021e-03
2.654506257629484026e+03 1.778279410038922752e-03
2.698587401117504214e+03 3.162277660168379394e-03
2.752494083734394735e+03 5.623413251903490971e-03
2.818026287057360150e+03 1.000000000000000021e-02
2.900538952876771418e+03 1.778279410038922925e-02
3.011120473613197191e+03 3.162277660168379134e-02
3.150363084751209044e+03 5.623413251903491145e-02
3.314679676206094427e+03 1.000000000000000056e-01
3.502054865898495791e+03 1.778279410038922925e-01
3.711604003211527015e+03 3.162277660168379412e-01
3.958152835987919843e+03 5.623413251903490728e-01
4.243940396669189795e+03 1.000000000000000000e+00
4.595355614947779941e+03 1.778279410038922759e+00
5.066044111014111877e+03 3.162277660168379523e+00
5.745507390946069791e+03 5.623413251903491172e+00
6.759902168597614946e+03 1.000000000000000000e+01
8.252857205521073411e+03 1.778279410038922848e+01
1.000000000000000000e+04 3.162277660168379256e+01
1.000000000000000000e+04 5.623413251903490817e+01
1.000000000000000000e+04 1.000000000000000000e+02
1.000000000000000000e+04 1.778279410038922776e+02
1.000000000000000000e+04 3.162277660168379612e+02
