# Temperature (K), Pressure (bars)
1.472652284273892974e+03 3.162277660168379191e-06
1.490829023713710967e+03 5.623413251903491208e-06
1.517436873376983385e+03 1.000000000000000082e-05
1.550393458653251173e+03 1.778279410038922901e-05
1.589008512252559285e+03 3.162277660168379530e-05
1.634341229057827832e+03 5.623413251903490700e-05
1.685544558167731566e+03 1.000000000000000048e-04
1.741937805240700982e+03 1.778279410038922698e-04
1.803579659734348297e+03 3.162277660168379394e-04
1.868733347510612930e+03 5.623413251903490971e-04
1.938947522978044617e+03 1.000000000000000021e-03
2.014275486255851320e+03 1.778279410038922752e-03
2.103119442803532820e+03 3.162277660168379394e-03
2.220075840841746867e+03 5.623413251903490971e-03
2.353890754822461531e+03 1.000000000000000021e-02
2.490657618443463889e+03 1.778279410038922925e-02
2.631785696503194686e+03 3.162277660168379134e-02
2.779039562696088069e+03 5.623413251903491145e-02
2.934379163392428381e+03 1.000000000000000056e-01
3.100003573122257876e+03 1.778279410038922925e-01
3.277855949449550280e+03 3.162277660168379412e-01
3.469087232631198276e+03 5.623413251903490728e-01
3.675181801898167578e+03 1.000000000000000000e+00
3.899813490399164493e+03 1.778279410038922759e+00
4.149184324319182451e+03 3.162277660168379523e+00
4.431805661930680799e+03 5.623413251903491172e+00
4.759508280683015983e+03 1.000000000000000000e+01
5.149160002178827199e+03 1.778279410038922848e+01
5.629299032405419894e+03 3.162277660168379256e+01
6.246172521231257633e+03 5.623413251903490817e+01
7.082012847559836700e+03 1.000000000000000000e+02
8.266751296756085139e+03 1.778279410038922776e+02
9.918864035454782424e+03 3.162277660168379612e+02
