# Temperature (K), Pressure (bars)
1.773457463914490745e+03 9.999999999999999547e-07
1.807252495908729315e+03 1.778279410038922901e-06
1.841047527902967886e+03 3.162277660168379191e-06
1.876333603260572772e+03 5.623413251903491208e-06
1.915989027492823652e+03 1.000000000000000082e-05
1.958967679018467607e+03 1.778279410038922901e-05
2.004521487314883188e+03 3.162277660168379530e-05
2.053112319957233467e+03 5.623413251903490700e-05
2.104461592063977605e+03 1.000000000000000048e-04
2.158860833642296711e+03 1.778279410038922698e-04
2.217464165783426324e+03 3.162277660168379394e-04
2.281693430871697728e+03 5.623413251903490971e-04
2.355625628683422292e+03 1.000000000000000021e-03
2.444824239610371478e+03 1.778279410038922752e-03
2.548334368717261441e+03 3.162277660168379394e-03
2.662668785805883090e+03 5.623413251903490971e-03
2.787547820912928273e+03 1.000000000000000021e-02
2.924125449574914455e+03 1.778279410038922925e-02
3.075083137679207539e+03 3.162277660168379134e-02
3.245538083041396476e+03 5.623413251903491145e-02
3.446244854589462193e+03 1.000000000000000056e-01
3.657980812249891642e+03 1.778279410038922925e-01
3.913273679477158112e+03 3.162277660168379412e-01
4.207352387376425213e+03 5.623413251903490728e-01
4.600579058265243475e+03 1.000000000000000000e+00
5.191621275608289579e+03 1.778279410038922759e+00
6.132651887090278251e+03 3.162277660168379523e+00
7.536218650328765762e+03 5.623413251903491172e+00
9.236298603995710437e+03 1.000000000000000000e+01
1.000000000000000000e+04 1.778279410038922848e+01
1.000000000000000000e+04 3.162277660168379256e+01
1.000000000000000000e+04 5.623413251903490817e+01
1.000000000000000000e+04 1.000000000000000000e+02
1.000000000000000000e+04 1.778279410038922776e+02
1.000000000000000000e+04 3.162277660168379612e+02
