# Temperature (K), Pressure (bars)
7.781174561527678861e+02 1.000000000000000048e-04
8.257452706457098657e+02 1.778279410038922698e-04
8.733730862080577708e+02 3.162277660168379394e-04
9.201534423526937871e+02 5.623413251903490971e-04
9.667076290221895079e+02 1.000000000000000021e-03
1.015202478136179138e+03 1.778279410038922752e-03
1.068659935776897100e+03 3.162277660168379394e-03
1.129854802637135208e+03 5.623413251903490971e-03
1.204346926359422696e+03 1.000000000000000021e-02
1.294835257575781498e+03 1.778279410038922925e-02
1.426764876579474731e+03 3.162277660168379134e-02
1.633787362533633313e+03 5.623413251903491145e-02
1.888093263204502591e+03 1.000000000000000056e-01
2.145096287702116570e+03 1.778279410038922925e-01
2.387664296019580888e+03 3.162277660168379412e-01
2.610701775442839335e+03 5.623413251903490728e-01
2.819869256205332476e+03 1.000000000000000000e+00
3.023539612985937765e+03 1.778279410038922759e+00
3.229278499432889930e+03 3.162277660168379523e+00
3.443271184076743793e+03 5.623413251903491172e+00
3.670796074938431957e+03 1.000000000000000000e+01
3.917104445461497562e+03 1.778279410038922848e+01
4.190366725156356551e+03 3.162277660168379256e+01
4.494866189791217039e+03 5.623413251903490817e+01
4.838216677813575188e+03 1.000000000000000000e+02
5.223967834711839714e+03 1.778279410038922776e+02
5.676416472088416413e+03 3.162277660168379612e+02
