# Temperature (K), Pressure (bars)
1.218912181651701530e+03 9.999999999999999547e-07
1.247519483626656438e+03 1.778279410038922901e-06
1.276126785603965573e+03 3.162277660168379191e-06
1.311441960781548914e+03 5.623413251903491208e-06
1.350819740980543429e+03 1.000000000000000082e-05
1.393057760033852219e+03 1.778279410038922901e-05
1.441424217585280530e+03 3.162277660168379530e-05
1.496890069157215294e+03 5.623413251903490700e-05
1.560352788386922839e+03 1.000000000000000048e-04
1.636631708300660648e+03 1.778279410038922698e-04
1.722165619187956963e+03 3.162277660168379394e-04
1.807801106889990024e+03 5.623413251903490971e-04
1.892647403811569120e+03 1.000000000000000021e-03
1.984590029609596058e+03 1.778279410038922752e-03
2.097239641312246022e+03 3.162277660168379394e-03
2.232405701137282904e+03 5.623413251903490971e-03
2.376029272511429554e+03 1.000000000000000021e-02
2.521170308991095226e+03 1.778279410038922925e-02
2.670134309369960192e+03 3.162277660168379134e-02
2.824937254949287308e+03 5.623413251903491145e-02
2.987577097656303067e+03 1.000000000000000056e-01
3.160062108992681715e+03 1.778279410038922925e-01
3.344042231227833327e+03 3.162277660168379412e-01
3.540972741461272562e+03 5.623413251903490728e-01
3.753772309666466299e+03 1.000000000000000000e+00
3.987760748548720585e+03 1.778279410038922759e+00
4.250670954728357174e+03 3.162277660168379523e+00
4.553076410849113017e+03 5.623413251903491172e+00
4.907762196108998978e+03 1.000000000000000000e+01
5.342370722397553436e+03 1.778279410038922848e+01
5.896197253312929206e+03 3.162277660168379256e+01
6.633752933606318948e+03 5.623413251903490817e+01
7.664845015872423573e+03 1.000000000000000000e+02
9.151218880190463096e+03 1.778279410038922776e+02
1.106202087457014386e+04 3.162277660168379612e+02
