# Temperature (K), Pressure (bars)
9.829602731786303593e+02 5.623413251903490700e-05
1.032085423600877903e+03 1.000000000000000048e-04
1.081210575824749640e+03 1.778279410038922698e-04
1.130490050391088744e+03 3.162277660168379394e-04
1.180618127754558600e+03 5.623413251903490971e-04
1.233278614911783961e+03 1.000000000000000021e-03
1.288498296705173061e+03 1.778279410038922752e-03
1.346756331508228868e+03 3.162277660168379394e-03
1.410526071858409750e+03 5.623413251903490971e-03
1.485425458924254826e+03 1.000000000000000021e-02
1.576540166413640236e+03 1.778279410038922925e-02
1.692545219474499390e+03 3.162277660168379134e-02
1.841237707742826615e+03 5.623413251903491145e-02
2.032358559718760034e+03 1.000000000000000056e-01
2.261437212602118962e+03 1.778279410038922925e-01
2.487096394574865826e+03 3.162277660168379412e-01
2.692902701787787009e+03 5.623413251903490728e-01
2.893316597671794170e+03 1.000000000000000000e+00
3.094467338483285857e+03 1.778279410038922759e+00
3.300744324840943591e+03 3.162277660168379523e+00
3.516611606504969131e+03 5.623413251903491172e+00
3.746997541381586416e+03 1.000000000000000000e+01
3.997244687470724330e+03 1.778279410038922848e+01
4.275303690829651714e+03 3.162277660168379256e+01
4.586624422337131364e+03 5.623413251903490817e+01
4.939446541988773788e+03 1.000000000000000000e+02
5.337696443556339545e+03 1.778279410038922776e+02
5.807710726870369399e+03 3.162277660168379612e+02
