# Temperature (K), Pressure (bars)
9.038509685645636864e+02 1.000000000000000048e-04
9.567556756817976975e+02 1.778279410038922698e-04
1.009660382287469702e+03 3.162277660168379394e-04
1.059587506275060377e+03 5.623413251903490971e-04
1.109149257986732664e+03 1.000000000000000021e-03
1.157457552747180216e+03 1.778279410038922752e-03
1.200931237024640495e+03 3.162277660168379394e-03
1.236842235032429244e+03 5.623413251903490971e-03
1.268466141293286228e+03 1.000000000000000021e-02
1.302094884433268362e+03 1.778279410038922925e-02
1.341329885258792501e+03 3.162277660168379134e-02
1.389430108479126375e+03 5.623413251903491145e-02
1.442714827413808734e+03 1.000000000000000056e-01
1.498692165063672064e+03 1.778279410038922925e-01
1.587884874254518081e+03 3.162277660168379412e-01
1.747078470693076270e+03 5.623413251903490728e-01
1.981168774712502454e+03 1.000000000000000000e+00
2.262991103116234171e+03 1.778279410038922759e+00
2.545670632255216333e+03 3.162277660168379523e+00
2.811618700506365258e+03 5.623413251903491172e+00
3.070455147124168434e+03 1.000000000000000000e+01
3.329549385372152756e+03 1.778279410038922848e+01
3.598778589177787126e+03 3.162277660168379256e+01
3.884343230678005966e+03 5.623413251903490817e+01
4.193272483618310616e+03 1.000000000000000000e+02
4.529184565827184997e+03 1.778279410038922776e+02
4.908295270203737346e+03 3.162277660168379612e+02
