# Temperature (K), Pressure (bars)
9.809703445976836065e+02 3.162277660168379394e-04
1.045099356307755215e+03 5.623413251903490971e-04
1.109228368560305398e+03 1.000000000000000021e-03
1.162150885620885674e+03 1.778279410038922752e-03
1.201919613771908644e+03 3.162277660168379394e-03
1.235701758415825452e+03 5.623413251903490971e-03
1.268824438207825324e+03 1.000000000000000021e-02
1.302206613271649303e+03 1.778279410038922925e-02
1.337382231315398712e+03 3.162277660168379134e-02
1.375231360904265102e+03 5.623413251903491145e-02
1.415946879215077843e+03 1.000000000000000056e-01
1.461847302021875294e+03 1.778279410038922925e-01
1.522348245721022749e+03 3.162277660168379412e-01
1.623535464861742867e+03 5.623413251903490728e-01
1.762278875318457722e+03 1.000000000000000000e+00
1.948338087618200007e+03 1.778279410038922759e+00
2.216311646600972381e+03 3.162277660168379523e+00
2.515279824943355834e+03 5.623413251903491172e+00
2.799102101542951914e+03 1.000000000000000000e+01
3.077970816598450710e+03 1.778279410038922848e+01
3.359234479712708890e+03 3.162277660168379256e+01
3.649539029828185448e+03 5.623413251903490817e+01
3.956781542531834475e+03 1.000000000000000000e+02
4.285597746677145551e+03 1.778279410038922776e+02
4.650705804446002730e+03 3.162277660168379612e+02
