# Temperature (K), Pressure (bars)
1.912568714766503945e+03 9.999999999999999547e-07
1.924833580406515466e+03 1.778279410038922901e-06
1.937098446046526988e+03 3.162277660168379191e-06
1.955415464384759161e+03 5.623413251903491208e-06
1.982310569410720746e+03 1.000000000000000082e-05
2.018587853371930578e+03 1.778279410038922901e-05
2.062452680593728019e+03 3.162277660168379530e-05
2.111714236703300685e+03 5.623413251903490700e-05
2.165327734318901094e+03 1.000000000000000048e-04
2.222417935971768202e+03 1.778279410038922698e-04
2.283437711522356494e+03 3.162277660168379394e-04
2.349606120164843560e+03 5.623413251903490971e-04
2.422085363237656111e+03 1.000000000000000021e-03
2.504886621480753092e+03 1.778279410038922752e-03
2.602028349307355711e+03 3.162277660168379394e-03
2.712285690648414857e+03 5.623413251903490971e-03
2.834320941305179986e+03 1.000000000000000021e-02
2.969660751916704612e+03 1.778279410038922925e-02
3.121011125444600566e+03 3.162277660168379134e-02
3.293267543168190969e+03 5.623413251903491145e-02
3.496110909523372356e+03 1.000000000000000056e-01
3.758129309593939524e+03 1.778279410038922925e-01
4.026622199366991481e+03 3.162277660168379412e-01
4.381568359552379661e+03 5.623413251903490728e-01
4.911493858470303167e+03 1.000000000000000000e+00
5.774223903007792615e+03 1.778279410038922759e+00
7.046292354547978903e+03 3.162277660168379523e+00
8.676575352960819146e+03 5.623413251903491172e+00
1.041380008522101707e+04 1.000000000000000000e+01
1.240960498618014753e+04 1.778279410038922848e+01
1.492821495180318379e+04 3.162277660168379256e+01
1.808706112932636097e+04 5.623413251903490817e+01
2.200447967275406700e+04 1.000000000000000000e+02
2.678426648717647186e+04 1.778279410038922776e+02
3.248148481656405784e+04 3.162277660168379612e+02
