# Temperature (K), Pressure (bars)
8.423186215334199005e+02 3.162277660168379530e-05
9.006771917173506381e+02 5.623413251903490700e-05
9.590357651645573469e+02 1.000000000000000048e-04
1.017499599776441414e+03 1.778279410038922698e-04
1.077566828164686740e+03 3.162277660168379394e-04
1.137808507720454600e+03 5.623413251903490971e-04
1.193442298432891221e+03 1.000000000000000021e-03
1.239250181723369906e+03 1.778279410038922752e-03
1.287900682574240818e+03 3.162277660168379394e-03
1.374689213697810828e+03 5.623413251903490971e-03
1.516537616832311414e+03 1.000000000000000021e-02
1.686483918146413316e+03 1.778279410038922925e-02
1.833440000671438156e+03 3.162277660168379134e-02
1.938836220021428971e+03 5.623413251903491145e-02
2.032979787793234209e+03 1.000000000000000056e-01
2.136790311155510608e+03 1.778279410038922925e-01
2.275745227946597424e+03 3.162277660168379412e-01
2.475882310379059163e+03 5.623413251903490728e-01
2.698086341208582326e+03 1.000000000000000000e+00
2.911501572417088482e+03 1.778279410038922759e+00
3.126259632281261929e+03 3.162277660168379523e+00
3.347244066504606053e+03 5.623413251903491172e+00
3.578759858817781605e+03 1.000000000000000000e+01
3.825888811555134453e+03 1.778279410038922848e+01
4.096026222901113215e+03 3.162277660168379256e+01
4.394916521429569002e+03 5.623413251903490817e+01
4.729843746712427674e+03 1.000000000000000000e+02
5.103943058010639106e+03 1.778279410038922776e+02
5.539706405190668193e+03 3.162277660168379612e+02
