# Temperature (K), Pressure (bars)
9.009978986872872611e+02 5.623413251903490700e-05
9.437187055257141992e+02 1.000000000000000048e-04
9.864395141298789440e+02 1.778279410038922698e-04
1.029414908033862048e+03 3.162277660168379394e-04
1.073618991731531651e+03 5.623413251903490971e-04
1.120383127089930440e+03 1.000000000000000021e-03
1.169904202415115833e+03 1.778279410038922752e-03
1.222669975420066294e+03 3.162277660168379394e-03
1.279493352066459693e+03 5.623413251903490971e-03
1.344688479956359288e+03 1.000000000000000021e-02
1.423298164584656433e+03 1.778279410038922925e-02
1.518931632414893784e+03 3.162277660168379134e-02
1.637993590516701261e+03 5.623413251903491145e-02
1.774095497356691567e+03 1.000000000000000056e-01
1.940678990757125803e+03 1.778279410038922925e-01
2.162295813547591933e+03 3.162277660168379412e-01
2.405477411031687552e+03 5.623413251903490728e-01
2.636307539160389751e+03 1.000000000000000000e+00
2.858224460680106858e+03 1.778279410038922759e+00
3.077236238200640855e+03 3.162277660168379523e+00
3.299199013623966039e+03 5.623413251903491172e+00
3.529986746680727720e+03 1.000000000000000000e+01
3.775516469827849050e+03 1.778279410038922848e+01
4.043700669790127904e+03 3.162277660168379256e+01
4.339555534265253300e+03 5.623413251903490817e+01
4.670151476855447982e+03 1.000000000000000000e+02
5.038825722735151430e+03 1.778279410038922776e+02
5.467097802729744217e+03 3.162277660168379612e+02
