# Temperature (K), Pressure (bars)
2.174438134164426629e+03 9.999999999999999547e-07
2.207161900800536841e+03 1.778279410038922901e-06
2.239885667436647054e+03 3.162277660168379191e-06
2.274152088963548522e+03 5.623413251903491208e-06
2.311803887360285898e+03 1.000000000000000082e-05
2.351490450297387270e+03 1.778279410038922901e-05
2.390588693756938028e+03 3.162277660168379530e-05
2.426450380965191925e+03 5.623413251903490700e-05
2.456617781148650465e+03 1.000000000000000048e-04
2.481124184926213275e+03 1.778279410038922698e-04
2.504204364445578449e+03 3.162277660168379394e-04
2.532685494036513774e+03 5.623413251903490971e-04
2.571731765850852298e+03 1.000000000000000021e-03
2.623846635833627261e+03 1.778279410038922752e-03
2.687427378655856501e+03 3.162277660168379394e-03
2.760567943208742690e+03 5.623413251903490971e-03
2.835723219607744340e+03 1.000000000000000021e-02
2.921072549329085632e+03 1.778279410038922925e-02
3.042944123219107951e+03 3.162277660168379134e-02
3.198044458595942615e+03 5.623413251903491145e-02
3.382710013722044550e+03 1.000000000000000056e-01
3.577615616043663522e+03 1.778279410038922925e-01
3.807234391493193016e+03 3.162277660168379412e-01
4.079476778729459056e+03 5.623413251903490728e-01
4.406807477766524244e+03 1.000000000000000000e+00
4.851459300102698762e+03 1.778279410038922759e+00
5.531053651404687116e+03 3.162277660168379523e+00
6.635141252420916317e+03 5.623413251903491172e+00
8.179013087669529341e+03 1.000000000000000000e+01
9.952584647921497890e+03 1.778279410038922848e+01
1.000000000000000000e+04 3.162277660168379256e+01
1.000000000000000000e+04 5.623413251903490817e+01
1.000000000000000000e+04 1.000000000000000000e+02
1.000000000000000000e+04 1.778279410038922776e+02
1.000000000000000000e+04 3.162277660168379612e+02
