# Temperature (K), Pressure (bars)
2.096515805491324954e+03 9.999999999999999547e-07
2.117308247570587355e+03 1.778279410038922901e-06
2.138100689649849301e+03 3.162277660168379191e-06
2.162917405247651914e+03 5.623413251903491208e-06
2.191980169705613207e+03 1.000000000000000082e-05
2.224672415536619155e+03 1.778279410038922901e-05
2.260925061571624155e+03 3.162277660168379530e-05
2.300458546508453310e+03 5.623413251903490700e-05
2.341720239548374138e+03 1.000000000000000048e-04
2.381798263546611452e+03 1.778279410038922698e-04
2.418710462768044181e+03 3.162277660168379394e-04
2.452118431534003321e+03 5.623413251903490971e-04
2.482414104662859700e+03 1.000000000000000021e-03
2.510653152615729141e+03 1.778279410038922752e-03
2.539378167788210249e+03 3.162277660168379394e-03
2.571161529474666622e+03 5.623413251903490971e-03
2.610887759766848376e+03 1.000000000000000021e-02
2.659713235596851064e+03 1.778279410038922925e-02
2.727542957539957570e+03 3.162277660168379134e-02
2.833008398162195135e+03 5.623413251903491145e-02
2.967168626323254557e+03 1.000000000000000056e-01
3.116340736235722943e+03 1.778279410038922925e-01
3.282945344512861993e+03 3.162277660168379412e-01
3.469142516701031582e+03 5.623413251903490728e-01
3.675944424740193426e+03 1.000000000000000000e+00
3.904700515712844663e+03 1.778279410038922759e+00
4.159452677856109403e+03 3.162277660168379523e+00
4.448102176573228462e+03 5.623413251903491172e+00
4.782886952120830756e+03 1.000000000000000000e+01
5.178723395097340472e+03 1.778279410038922848e+01
5.667966125787377678e+03 3.162277660168379256e+01
6.298552695277383464e+03 5.623413251903490817e+01
7.156758036736325266e+03 1.000000000000000000e+02
8.381938565515054506e+03 1.778279410038922776e+02
1.000000000000000000e+04 3.162277660168379612e+02
