# Temperature (K), Pressure (bars)
9.336899850254396824e+02 1.000000000000000048e-04
9.842414983443172787e+02 1.778279410038922698e-04
1.034793012263939318e+03 3.162277660168379394e-04
1.080233469680224061e+03 5.623413251903490971e-04
1.123495483533974721e+03 1.000000000000000021e-03
1.167837609596518405e+03 1.778279410038922752e-03
1.216468876650610127e+03 3.162277660168379394e-03
1.273601831573545496e+03 5.623413251903490971e-03
1.345993774091758041e+03 1.000000000000000021e-02
1.433339086523931655e+03 1.778279410038922925e-02
1.533009013306240377e+03 3.162277660168379134e-02
1.645489797577674381e+03 5.623413251903491145e-02
1.763378060841919705e+03 1.000000000000000056e-01
1.887579882188967986e+03 1.778279410038922925e-01
2.039953828828430460e+03 3.162277660168379412e-01
2.246998706038346427e+03 5.623413251903490728e-01
2.493359469404266292e+03 1.000000000000000000e+00
2.735496552879746105e+03 1.778279410038922759e+00
2.965020830584272517e+03 3.162277660168379523e+00
3.193908179391949034e+03 5.623413251903491172e+00
3.428472808474849899e+03 1.000000000000000000e+01
3.674828884173150982e+03 1.778279410038922848e+01
3.941016478815504797e+03 3.162277660168379256e+01
4.232354164967896395e+03 5.623413251903490817e+01
4.555771663404356332e+03 1.000000000000000000e+02
4.914739635869148515e+03 1.778279410038922776e+02
5.328640730431030534e+03 3.162277660168379612e+02
