# Temperature (K), Pressure (bars)
8.857742232956886710e+02 1.000000000000000048e-04
9.375882600962594324e+02 1.778279410038922698e-04
9.894022981953780800e+02 3.162277660168379394e-04
1.040474786876343387e+03 5.623413251903490971e-04
1.091591669891324273e+03 1.000000000000000021e-03
1.143834554442690660e+03 1.778279410038922752e-03
1.198174548178742043e+03 3.162277660168379394e-03
1.256131245994812389e+03 5.623413251903490971e-03
1.320917880083575710e+03 1.000000000000000021e-02
1.398250804810868885e+03 1.778279410038922925e-02
1.506112050474293937e+03 3.162277660168379134e-02
1.654377681436400053e+03 5.623413251903491145e-02
1.852359411227972487e+03 1.000000000000000056e-01
2.101039312331336532e+03 1.778279410038922925e-01
2.351244312107556652e+03 3.162277660168379412e-01
2.576170152639167100e+03 5.623413251903490728e-01
2.789153991226998187e+03 1.000000000000000000e+00
2.997274854213367689e+03 1.778279410038922759e+00
3.206616556009818396e+03 3.162277660168379523e+00
3.422920291806101432e+03 5.623413251903491172e+00
3.651709524055849670e+03 1.000000000000000000e+01
3.898455803734848359e+03 1.778279410038922848e+01
4.171196501932356114e+03 3.162277660168379256e+01
4.474702068138272807e+03 5.623413251903490817e+01
4.816575415304013404e+03 1.000000000000000000e+02
5.200660173589910301e+03 1.778279410038922776e+02
5.650301797869431539e+03 3.162277660168379612e+02
