# Temperature (K), Pressure (bars)
1.590665459012096107e+03 1.000000000000000082e-05
1.619531729088071643e+03 1.778279410038922901e-05
1.648398003240850812e+03 3.162277660168379530e-05
1.683714932666436880e+03 5.623413251903490700e-05
1.740923229462813651e+03 1.000000000000000048e-04
1.802459273249265152e+03 1.778279410038922698e-04
1.855139058020919265e+03 3.162277660168379394e-04
1.905233230654057706e+03 5.623413251903490971e-04
1.950897027772131878e+03 1.000000000000000021e-03
1.990549544560390586e+03 1.778279410038922752e-03
2.026426521762375842e+03 3.162277660168379394e-03
2.058726250862825054e+03 5.623413251903490971e-03
2.088078387949300577e+03 1.000000000000000021e-02
2.116961243439975988e+03 1.778279410038922925e-02
2.149078667628630683e+03 3.162277660168379134e-02
2.187484687985266191e+03 5.623413251903491145e-02
2.238012410685518262e+03 1.000000000000000056e-01
2.302234637837790160e+03 1.778279410038922925e-01
2.398340701884758801e+03 3.162277660168379412e-01
2.557404679854608730e+03 5.623413251903490728e-01
2.758498452284622545e+03 1.000000000000000000e+00
2.965634086906747598e+03 1.778279410038922759e+00
3.176550898195970603e+03 3.162277660168379523e+00
3.396234350925240506e+03 5.623413251903491172e+00
3.628111928813454142e+03 1.000000000000000000e+01
3.876696026539606009e+03 1.778279410038922848e+01
4.149069004066175694e+03 3.162277660168379256e+01
4.451469178520260357e+03 5.623413251903490817e+01
4.791480245437807753e+03 1.000000000000000000e+02
5.172993055584420290e+03 1.778279410038922776e+02
5.618875514476385433e+03 3.162277660168379612e+02
