# Temperature (K), Pressure (bars)
1.781887901826965390e+03 9.999999999999999547e-07
1.790797650711963797e+03 1.778279410038922901e-06
1.799707399623055835e+03 3.162277660168379191e-06
1.812156912503715603e+03 5.623413251903491208e-06
1.828190362333146822e+03 1.000000000000000082e-05
1.847491448218421738e+03 1.778279410038922901e-05
1.871883873072736378e+03 3.162277660168379530e-05
1.903420655079005655e+03 5.623413251903490700e-05
1.941650062241900741e+03 1.000000000000000048e-04
1.985585609045948331e+03 1.778279410038922698e-04
2.035319678606980688e+03 3.162277660168379394e-04
2.089881483691021458e+03 5.623413251903490971e-04
2.149495731020104813e+03 1.000000000000000021e-03
2.214079007465220911e+03 1.778279410038922752e-03
2.288060766568461986e+03 3.162277660168379394e-03
2.381465663713357571e+03 5.623413251903490971e-03
2.492298656605545148e+03 1.000000000000000021e-02
2.612749407494474781e+03 1.778279410038922925e-02
2.741807199245962238e+03 3.162277660168379134e-02
2.880773160912041931e+03 5.623413251903491145e-02
3.031582105989670708e+03 1.000000000000000056e-01
3.196885813100770065e+03 1.778279410038922925e-01
3.379285560472072575e+03 3.162277660168379412e-01
3.580298349143405176e+03 5.623413251903490728e-01
3.801430303570109572e+03 1.000000000000000000e+00
4.046932581502069297e+03 1.778279410038922759e+00
4.325164556676049870e+03 3.162277660168379523e+00
4.649181284302610038e+03 5.623413251903491172e+00
5.033364511580824910e+03 1.000000000000000000e+01
5.517954832892771265e+03 1.778279410038922848e+01
6.164879426285374393e+03 3.162277660168379256e+01
7.089451044810286476e+03 5.623413251903490817e+01
8.442503100183563220e+03 1.000000000000000000e+02
1.025356082615354717e+04 1.778279410038922776e+02
1.244009010896885411e+04 3.162277660168379612e+02
