# Temperature (K), Pressure (bars)
1.338440156437063479e+03 3.162277660168379530e-05
1.375860711078139047e+03 5.623413251903490700e-05
1.413281268092890286e+03 1.000000000000000048e-04
1.465011800478418081e+03 1.778279410038922698e-04
1.519737920887918790e+03 3.162277660168379394e-04
1.568525500417216335e+03 5.623413251903490971e-04
1.617541471480961263e+03 1.000000000000000021e-03
1.670593229068912251e+03 1.778279410038922752e-03
1.727576241966960424e+03 3.162277660168379394e-03
1.787802660167573549e+03 5.623413251903490971e-03
1.852333796589487747e+03 1.000000000000000021e-02
1.921765325035907836e+03 1.778279410038922925e-02
2.000515045535493073e+03 3.162277660168379134e-02
2.089243523419796475e+03 5.623413251903491145e-02
2.203990946172196345e+03 1.000000000000000056e-01
2.370817352309912621e+03 1.778279410038922925e-01
2.564378088153473072e+03 3.162277660168379412e-01
2.755214029907263921e+03 5.623413251903490728e-01
2.947006157272495784e+03 1.000000000000000000e+00
3.144447596331574459e+03 1.778279410038922759e+00
3.350564325328303767e+03 3.162277660168379523e+00
3.568138484647971381e+03 5.623413251903491172e+00
3.801187234379085112e+03 1.000000000000000000e+01
4.054928539772660770e+03 1.778279410038922848e+01
4.337101482764025604e+03 3.162277660168379256e+01
4.654131006988170157e+03 5.623413251903490817e+01
5.014825460592382115e+03 1.000000000000000000e+02
5.423516710552229597e+03 1.778279410038922776e+02
5.908322728687287054e+03 3.162277660168379612e+02
