# Temperature (K), Pressure (bars)
9.101220989247385660e+02 1.000000000000000048e-04
9.647934717997861753e+02 1.778279410038922698e-04
1.019464846212082193e+03 3.162277660168379394e-04
1.072441311406889326e+03 5.623413251903490971e-04
1.125361873356545630e+03 1.000000000000000021e-03
1.179839632113077869e+03 1.778279410038922752e-03
1.237390484757033164e+03 3.162277660168379394e-03
1.301032018842979824e+03 5.623413251903490971e-03
1.374037107671241984e+03 1.000000000000000021e-02
1.463170634354936510e+03 1.778279410038922925e-02
1.580541175905361115e+03 3.162277660168379134e-02
1.759528467474603303e+03 5.623413251903491145e-02
2.005931663038318902e+03 1.000000000000000056e-01
2.258072177602265583e+03 1.778279410038922925e-01
2.483193208036016131e+03 3.162277660168379412e-01
2.693136044349115309e+03 5.623413251903490728e-01
2.895265044001749629e+03 1.000000000000000000e+00
3.096016519498637081e+03 1.778279410038922759e+00
3.301038513790125307e+03 3.162277660168379523e+00
3.515682351368920536e+03 5.623413251903491172e+00
3.745078180230417729e+03 1.000000000000000000e+01
3.994503783877562910e+03 1.778279410038922848e+01
4.272033324226536024e+03 3.162277660168379256e+01
4.582698208102452554e+03 5.623413251903490817e+01
4.934619322421614015e+03 1.000000000000000000e+02
5.331674842544016428e+03 1.778279410038922776e+02
5.799974514322169853e+03 3.162277660168379612e+02
