# Temperature (K), Pressure (bars)
1.803956877385436655e+03 9.999999999999999547e-07
1.838117132611128682e+03 1.778279410038922901e-06
1.872277387844396571e+03 3.162277660168379191e-06
1.911218718947948673e+03 5.623413251903491208e-06
1.955388120813683145e+03 1.000000000000000082e-05
2.005031229111721132e+03 1.778279410038922901e-05
2.059599537114103441e+03 3.162277660168379530e-05
2.117808116669857554e+03 5.623413251903490700e-05
2.179576043835901146e+03 1.000000000000000048e-04
2.245792894846798390e+03 1.778279410038922698e-04
2.318133368436830551e+03 3.162277660168379394e-04
2.398522672422632240e+03 5.623413251903490971e-04
2.488989577989113513e+03 1.000000000000000021e-03
2.590200944254719616e+03 1.778279410038922752e-03
2.701260635815326168e+03 3.162277660168379394e-03
2.821816011556074955e+03 5.623413251903490971e-03
2.953086351578633185e+03 1.000000000000000021e-02
3.098808760936931321e+03 1.778279410038922925e-02
3.267771579747841770e+03 3.162277660168379134e-02
3.486190244827930655e+03 5.623413251903491145e-02
3.712724643144927995e+03 1.000000000000000056e-01
4.007317042993122413e+03 1.778279410038922925e-01
4.443714597775845505e+03 3.162277660168379412e-01
5.198036613800088162e+03 5.623413251903490728e-01
6.385082133716927274e+03 1.000000000000000000e+00
7.905792399439017572e+03 1.778279410038922759e+00
9.486179182447218409e+03 3.162277660168379523e+00
1.112789644039378072e+04 5.623413251903491172e+00
1.311289827076110123e+04 1.000000000000000000e+01
1.562876943524143280e+04 1.778279410038922848e+01
1.880425258085721725e+04 3.162277660168379256e+01
2.278639783518223339e+04 5.623413251903490817e+01
2.772595937123404292e+04 1.000000000000000000e+02
3.375698093168020569e+04 1.778279410038922776e+02
4.095128863976068533e+04 3.162277660168379612e+02
