# Temperature (K), Pressure (bars)
1.048500072056270255e+03 5.623413251903490700e-05
1.096829835212745593e+03 1.000000000000000048e-04
1.145159600490929961e+03 1.778279410038922698e-04
1.194993505129103369e+03 3.162277660168379394e-04
1.247068088188543697e+03 5.623413251903490971e-04
1.301134742748522967e+03 1.000000000000000021e-03
1.357599762379774802e+03 1.778279410038922752e-03
1.418312901355011945e+03 3.162277660168379394e-03
1.484951200927943091e+03 5.623413251903490971e-03
1.560773678930205733e+03 1.000000000000000021e-02
1.651571246952856882e+03 1.778279410038922925e-02
1.763283540825997534e+03 3.162277660168379134e-02
1.917045417026154155e+03 5.623413251903491145e-02
2.121854895486380883e+03 1.000000000000000056e-01
2.340926256444719911e+03 1.778279410038922925e-01
2.547279886424348206e+03 3.162277660168379412e-01
2.744922973034748793e+03 5.623413251903490728e-01
2.940403226428879407e+03 1.000000000000000000e+00
3.138838447639337573e+03 1.778279410038922759e+00
3.344168491645455561e+03 3.162277660168379523e+00
3.560330821457264392e+03 5.623413251903491172e+00
3.791887991608800803e+03 1.000000000000000000e+01
4.044117566211037229e+03 1.778279410038922848e+01
4.324981712488451194e+03 3.162277660168379256e+01
4.640303088136121005e+03 5.623413251903490817e+01
4.998718840671604994e+03 1.000000000000000000e+02
5.404366407275519123e+03 1.778279410038922776e+02
5.884891213426823015e+03 3.162277660168379612e+02
