# Temperature (K), Pressure (bars)
8.543987655702022721e+02 5.623413251903490971e-04
8.970056220018767590e+02 1.000000000000000021e-03
9.396124793665643438e+02 1.778279410038922752e-03
9.815778855289598823e+02 3.162277660168379394e-03
1.024390180864491413e+03 5.623413251903490971e-03
1.068301102897952433e+03 1.000000000000000021e-02
1.113398944342450477e+03 1.778279410038922925e-02
1.161219466678898243e+03 3.162277660168379134e-02
1.214504069090086887e+03 5.623413251903491145e-02
1.277752809152383634e+03 1.000000000000000056e-01
1.362253451302414533e+03 1.778279410038922925e-01
1.487774776875600310e+03 3.162277660168379412e-01
1.661196218892447177e+03 5.623413251903490728e-01
1.887480977141828589e+03 1.000000000000000000e+00
2.163408579440100766e+03 1.778279410038922759e+00
2.449457631029814365e+03 3.162277660168379523e+00
2.722711946026756777e+03 5.623413251903491172e+00
2.988918605007272163e+03 1.000000000000000000e+01
3.253404623803662616e+03 1.778279410038922848e+01
3.525345967953457603e+03 3.162277660168379256e+01
3.811394680799747675e+03 5.623413251903490817e+01
4.118882668061506592e+03 1.000000000000000000e+02
4.451430656635562627e+03 1.778279410038922776e+02
4.825267621330159272e+03 3.162277660168379612e+02
