# Temperature (K), Pressure (bars)
7.858670987011332727e+02 3.162277660168379394e-04
8.318093826488629929e+02 5.623413251903490971e-04
8.777516674879956327e+02 1.000000000000000021e-03
9.230814878826322456e+02 1.778279410038922752e-03
9.685888863247402014e+02 3.162277660168379394e-03
1.016785889292727347e+03 5.623413251903490971e-03
1.071129655715615172e+03 1.000000000000000021e-02
1.135595881707070475e+03 1.778279410038922925e-02
1.216149930713979074e+03 3.162277660168379134e-02
1.320781963079557727e+03 5.623413251903491145e-02
1.477037849372107075e+03 1.000000000000000056e-01
1.703065665689429807e+03 1.778279410038922925e-01
1.964828178138320027e+03 3.162277660168379412e-01
2.228277859070417890e+03 5.623413251903490728e-01
2.482180491684244316e+03 1.000000000000000000e+00
2.721632865606645737e+03 1.778279410038922759e+00
2.951278625720366108e+03 3.162277660168379523e+00
3.178810557765116300e+03 5.623413251903491172e+00
3.411688933379367427e+03 1.000000000000000000e+01
3.656597334600024624e+03 1.778279410038922848e+01
3.922073047463923558e+03 3.162277660168379256e+01
4.212391534569594114e+03 5.623413251903490817e+01
4.534325404361467008e+03 1.000000000000000000e+02
4.891042197806327749e+03 1.778279410038922776e+02
5.302233012762065300e+03 3.162277660168379612e+02
