# Temperature (K), Pressure (bars)
1.676179145638033788e+03 9.999999999999999547e-07
1.704359521664722024e+03 1.778279410038922901e-06
1.732539897691410488e+03 3.162277660168379191e-06
1.765099526568159263e+03 5.623413251903491208e-06
1.805705164210578687e+03 1.000000000000000082e-05
1.853502174569094223e+03 1.778279410038922901e-05
1.906980263350608539e+03 3.162277660168379530e-05
1.965399138259180745e+03 5.623413251903490700e-05
2.028266692627179054e+03 1.000000000000000048e-04
2.095345964658939465e+03 1.778279410038922698e-04
2.166600718268814489e+03 3.162277660168379394e-04
2.245185680649765345e+03 5.623413251903490971e-04
2.336295420326489875e+03 1.000000000000000021e-03
2.439871924657474210e+03 1.778279410038922752e-03
2.552810072952512201e+03 3.162277660168379394e-03
2.674508171803376172e+03 5.623413251903490971e-03
2.805827781404848793e+03 1.000000000000000021e-02
2.948512401370732732e+03 1.778279410038922925e-02
3.105789405189484114e+03 3.162277660168379134e-02
3.284535801500793696e+03 5.623413251903491145e-02
3.479094801990428095e+03 1.000000000000000056e-01
3.701490687884978342e+03 1.778279410038922925e-01
3.958166504023672132e+03 3.162277660168379412e-01
4.274739717884987840e+03 5.623413251903490728e-01
4.716783515013944452e+03 1.000000000000000000e+00
5.419089447335480145e+03 1.778279410038922759e+00
6.532272477158882793e+03 3.162277660168379523e+00
8.072928317682346460e+03 5.623413251903491172e+00
9.787321000442492732e+03 1.000000000000000000e+01
1.000000000000000000e+04 1.778279410038922848e+01
1.000000000000000000e+04 3.162277660168379256e+01
1.000000000000000000e+04 5.623413251903490817e+01
1.000000000000000000e+04 1.000000000000000000e+02
1.000000000000000000e+04 1.778279410038922776e+02
1.000000000000000000e+04 3.162277660168379612e+02
