# Temperature (K), Pressure (bars)
1.734495756290985128e+03 9.999999999999999547e-07
1.746536088149318857e+03 1.778279410038922901e-06
1.758576420007652814e+03 3.162277660168379191e-06
1.774524810396874273e+03 5.623413251903491208e-06
1.798188219993578514e+03 1.000000000000000082e-05
1.829114194296009373e+03 1.778279410038922901e-05
1.865856933949805580e+03 3.162277660168379530e-05
1.909294132891756135e+03 5.623413251903490700e-05
1.958898558194436646e+03 1.000000000000000048e-04
2.013676601017747771e+03 1.778279410038922698e-04
2.073229972820308376e+03 3.162277660168379394e-04
2.137104875379328405e+03 5.623413251903490971e-04
2.207150750757594324e+03 1.000000000000000021e-03
2.290268602647109219e+03 1.778279410038922752e-03
2.389933959692642475e+03 3.162277660168379394e-03
2.500683895998471598e+03 5.623413251903490971e-03
2.618974069736827005e+03 1.000000000000000021e-02
2.745737611683273826e+03 1.778279410038922925e-02
2.882247400575104621e+03 3.162277660168379134e-02
3.030419545150457452e+03 5.623413251903491145e-02
3.193131823712703408e+03 1.000000000000000056e-01
3.374249691467670345e+03 1.778279410038922925e-01
3.578054226799872595e+03 3.162277660168379412e-01
3.809069885611814698e+03 5.623413251903490728e-01
4.074427839896293790e+03 1.000000000000000000e+00
4.388443156124384586e+03 1.778279410038922759e+00
4.753847772038394396e+03 3.162277660168379523e+00
5.237046973236499070e+03 5.623413251903491172e+00
5.933183976277808142e+03 1.000000000000000000e+01
7.006780937979777264e+03 1.778279410038922848e+01
8.558964610217479276e+03 3.162277660168379256e+01
1.045955950802487496e+04 5.623413251903490817e+01
1.272694894814571853e+04 1.000000000000000000e+02
1.549534741823076183e+04 1.778279410038922776e+02
1.879772500928312365e+04 3.162277660168379612e+02
