# Temperature (K), Pressure (bars)
8.333644998256518193e+02 5.623413251903490971e-04
8.799208881946104839e+02 1.000000000000000021e-03
9.264772780763440778e+02 1.778279410038922752e-03
9.719326115298711102e+02 3.162277660168379394e-03
1.017589586491273849e+03 5.623413251903490971e-03
1.063842653418487544e+03 1.000000000000000021e-02
1.111259476975184498e+03 1.778279410038922925e-02
1.161829119282431975e+03 3.162277660168379134e-02
1.218958139487626795e+03 5.623413251903491145e-02
1.287617914805355895e+03 1.000000000000000056e-01
1.375428869230297778e+03 1.778279410038922925e-01
1.501197837597513171e+03 3.162277660168379412e-01
1.671358804273584155e+03 5.623413251903490728e-01
1.887945201185005089e+03 1.000000000000000000e+00
2.155631643561432156e+03 1.778279410038922759e+00
2.439788242004216499e+03 3.162277660168379523e+00
2.713330743127651658e+03 5.623413251903491172e+00
2.980328894603743265e+03 1.000000000000000000e+01
3.245578108681226240e+03 1.778279410038922848e+01
3.517944333196518073e+03 3.162277660168379256e+01
3.804169956046024254e+03 5.623413251903490817e+01
4.111634943561406544e+03 1.000000000000000000e+02
4.444013576172002104e+03 1.778279410038922776e+02
4.817455585644845087e+03 3.162277660168379612e+02
