# Temperature (K), Pressure (bars)
9.617670247779470856e+02 5.623413251903490971e-04
1.005908649774863761e+03 1.000000000000000021e-03
1.050050275144532407e+03 1.778279410038922752e-03
1.093592423184434665e+03 3.162277660168379394e-03
1.137940667625335436e+03 5.623413251903490971e-03
1.184362160930563277e+03 1.000000000000000021e-02
1.234353183271263561e+03 1.778279410038922925e-02
1.288322010980584537e+03 3.162277660168379134e-02
1.352808919980781184e+03 5.623413251903491145e-02
1.445336769292411873e+03 1.000000000000000056e-01
1.576412960747308944e+03 1.778279410038922925e-01
1.740990320788477220e+03 3.162277660168379412e-01
1.922737144102373804e+03 5.623413251903490728e-01
2.138637064989197370e+03 1.000000000000000000e+00
2.406316068585170797e+03 1.778279410038922759e+00
2.679091271820469956e+03 3.162277660168379523e+00
2.932362294958330949e+03 5.623413251903491172e+00
3.181944297346808071e+03 1.000000000000000000e+01
3.435650127479005732e+03 1.778279410038922848e+01
3.702231941005366480e+03 3.162277660168379256e+01
3.987937868665828319e+03 5.623413251903490817e+01
4.299613290624742149e+03 1.000000000000000000e+02
4.640561498846728682e+03 1.778279410038922776e+02
5.028093528506725306e+03 3.162277660168379612e+02
