# Temperature (K), Pressure (bars)
1.584458187060950650e+03 9.999999999999999547e-07
1.608110215921651388e+03 1.778279410038922901e-06
1.631762244794977960e+03 3.162277660168379191e-06
1.657616236539000965e+03 5.623413251903491208e-06
1.689608882593094222e+03 1.000000000000000082e-05
1.727930612070324514e+03 1.778279410038922901e-05
1.769271105901115334e+03 3.162277660168379530e-05
1.814909075723924161e+03 5.623413251903490700e-05
1.865053829983890409e+03 1.000000000000000048e-04
1.918631747395539833e+03 1.778279410038922698e-04
1.975914966795914097e+03 3.162277660168379394e-04
2.038092891324774882e+03 5.623413251903490971e-04
2.105889596298482957e+03 1.000000000000000021e-03
2.182575769371894694e+03 1.778279410038922752e-03
2.276473220804218727e+03 3.162277660168379394e-03
2.387557742979556679e+03 5.623413251903490971e-03
2.508648621719653420e+03 1.000000000000000021e-02
2.637439963717915816e+03 1.778279410038922925e-02
2.775166630039834217e+03 3.162277660168379134e-02
2.923521496466903955e+03 5.623413251903491145e-02
3.084780009960661573e+03 1.000000000000000056e-01
3.261356984518120953e+03 1.778279410038922925e-01
3.454775211320548806e+03 3.162277660168379412e-01
3.666310425824606682e+03 5.623413251903490728e-01
3.899449759398457900e+03 1.000000000000000000e+00
4.162026073565773004e+03 1.778279410038922759e+00
4.466167095361969587e+03 3.162277660168379523e+00
4.822446936287164135e+03 5.623413251903491172e+00
5.272211053553613056e+03 1.000000000000000000e+01
5.876072469844873012e+03 1.778279410038922848e+01
6.752927637958760897e+03 3.162277660168379256e+01
8.063618646584488488e+03 5.623413251903490817e+01
9.832908070746352678e+03 1.000000000000000000e+02
1.197548026324823877e+04 1.778279410038922776e+02
1.452850659709409410e+04 3.162277660168379612e+02
