# Temperature (K), Pressure (bars)
8.615302806830673035e+02 1.778279410038922901e-05
9.129883427041070263e+02 3.162277660168379530e-05
9.644923585459703190e+02 5.623413251903490700e-05
1.015511428972229851e+03 1.000000000000000048e-04
1.066691998440971929e+03 1.778279410038922698e-04
1.120045793314712682e+03 3.162277660168379394e-04
1.177679068156484163e+03 5.623413251903490971e-04
1.241942128551770566e+03 1.000000000000000021e-03
1.316059423199030789e+03 1.778279410038922752e-03
1.403640675195841595e+03 3.162277660168379394e-03
1.517306587258830859e+03 5.623413251903490971e-03
1.690610098153200397e+03 1.000000000000000021e-02
1.925543206931832628e+03 1.778279410038922925e-02
2.167077898663219003e+03 3.162277660168379134e-02
2.382249315320294954e+03 5.623413251903491145e-02
2.576796555383441046e+03 1.000000000000000056e-01
2.759049438363572335e+03 1.778279410038922925e-01
2.935781658443058404e+03 3.162277660168379412e-01
3.112438186596983542e+03 5.623413251903490728e-01
3.294121508089376221e+03 1.000000000000000000e+00
3.485626277123941691e+03 1.778279410038922759e+00
3.691406044656225276e+03 3.162277660168379523e+00
3.915984821095255938e+03 5.623413251903491172e+00
4.164423015906701949e+03 1.000000000000000000e+01
4.442866422717910609e+03 1.778279410038922848e+01
4.759598865505264257e+03 3.162277660168379256e+01
5.129739299672049128e+03 5.623413251903490817e+01
5.563953755181338238e+03 1.000000000000000000e+02
6.082695762372291938e+03 1.778279410038922776e+02
6.715306620102849593e+03 3.162277660168379612e+02
