# Temperature (K), Pressure (bars)
1.015781636415169487e+03 9.999999999999999547e-07
1.030372043155642132e+03 1.778279410038922901e-06
1.044962449904556706e+03 3.162277660168379191e-06
1.064608585282619515e+03 5.623413251903491208e-06
1.091256290910847156e+03 1.000000000000000082e-05
1.124106215054549011e+03 1.778279410038922901e-05
1.162092691830220019e+03 3.162277660168379530e-05
1.205426932544147576e+03 5.623413251903490700e-05
1.253487288949921549e+03 1.000000000000000048e-04
1.305045637488481589e+03 1.778279410038922698e-04
1.360343253629832134e+03 3.162277660168379394e-04
1.420872213447462627e+03 5.623413251903490971e-04
1.487818273853223445e+03 1.000000000000000021e-03
1.563943635183221886e+03 1.778279410038922752e-03
1.654557737693466606e+03 3.162277660168379394e-03
1.760763597064632904e+03 5.623413251903490971e-03
1.904929321828177308e+03 1.000000000000000021e-02
2.098311092299049051e+03 1.778279410038922925e-02
2.295632035722650016e+03 3.162277660168379134e-02
2.474064569721186217e+03 5.623413251903491145e-02
2.646274970535344437e+03 1.000000000000000056e-01
2.817463720169252156e+03 1.778279410038922925e-01
2.991271493824623576e+03 3.162277660168379412e-01
3.170364340046051439e+03 5.623413251903490728e-01
3.357076752578188007e+03 1.000000000000000000e+00
3.554489866396956586e+03 1.778279410038922759e+00
3.766809045771222372e+03 3.162277660168379523e+00
3.998976620059317611e+03 5.623413251903491172e+00
4.256732792280830836e+03 1.000000000000000000e+01
4.547127669765672181e+03 1.778279410038922848e+01
4.879634577403678122e+03 3.162277660168379256e+01
5.270568947278555243e+03 5.623413251903490817e+01
5.734707297824025773e+03 1.000000000000000000e+02
6.297809879572786485e+03 1.778279410038922776e+02
6.998873706172171296e+03 3.162277660168379612e+02
