# Temperature (K), Pressure (bars)
9.197885763172636189e+02 5.623413251903490971e-04
9.626491846931435248e+02 1.000000000000000021e-03
1.005509793368460919e+03 1.778279410038922752e-03
1.045511714007858473e+03 3.162277660168379394e-03
1.085837722347428326e+03 5.623413251903490971e-03
1.128401979689873770e+03 1.000000000000000021e-02
1.172804151382245664e+03 1.778279410038922925e-02
1.219269475020550999e+03 3.162277660168379134e-02
1.267919377734069940e+03 5.623413251903491145e-02
1.324937529576688348e+03 1.000000000000000056e-01
1.402593893529547586e+03 1.778279410038922925e-01
1.508979282958356407e+03 3.162277660168379412e-01
1.645032387956035336e+03 5.623413251903490728e-01
1.815572131078939037e+03 1.000000000000000000e+00
2.044687261819069590e+03 1.778279410038922759e+00
2.329144698755121681e+03 3.162277660168379523e+00
2.619472187480181219e+03 5.623413251903491172e+00
2.895115958864801996e+03 1.000000000000000000e+01
3.166653139441082203e+03 1.778279410038922848e+01
3.442687431633999950e+03 3.162277660168379256e+01
3.730329253631358824e+03 5.623413251903490817e+01
4.037221247434549696e+03 1.000000000000000000e+02
4.367678235519771079e+03 1.778279410038922776e+02
4.736865570367414875e+03 3.162277660168379612e+02
