# Temperature (K), Pressure (bars)
1.106368321660817628e+03 3.162277660168379394e-04
1.148700833920106561e+03 5.623413251903490971e-04
1.191033349060569435e+03 1.000000000000000021e-03
1.236912412248547980e+03 1.778279410038922752e-03
1.287212770910476138e+03 3.162277660168379394e-03
1.341930968453332980e+03 5.623413251903490971e-03
1.402960084718433563e+03 1.000000000000000021e-02
1.467063086420383115e+03 1.778279410038922925e-02
1.537818123725851365e+03 3.162277660168379134e-02
1.626172114588240220e+03 5.623413251903491145e-02
1.722941436321302717e+03 1.000000000000000056e-01
1.824309026500499385e+03 1.778279410038922925e-01
1.943940226847703116e+03 3.162277660168379412e-01
2.095263595427565178e+03 5.623413251903490728e-01
2.301983531136055717e+03 1.000000000000000000e+00
2.556322260712675416e+03 1.778279410038922759e+00
2.810405029861051389e+03 3.162277660168379523e+00
3.051048710275304074e+03 5.623413251903491172e+00
3.292759300942568643e+03 1.000000000000000000e+01
3.542471716756541809e+03 1.778279410038922848e+01
3.808075009211228007e+03 3.162277660168379256e+01
4.095486135476025538e+03 5.623413251903490817e+01
4.411500533081902176e+03 1.000000000000000000e+02
4.759447882284443040e+03 1.778279410038922776e+02
5.157640874443995017e+03 3.162277660168379612e+02
