# Temperature (K), Pressure (bars)
9.644659914198356319e+02 3.162277660168379394e-04
1.014098087635117849e+03 5.623413251903490971e-04
1.063730184619379543e+03 1.000000000000000021e-03
1.110147994798355057e+03 1.778279410038922752e-03
1.153433569119790491e+03 3.162277660168379394e-03
1.196653662711224797e+03 5.623413251903490971e-03
1.242877762890337408e+03 1.000000000000000021e-02
1.294417019122423426e+03 1.778279410038922925e-02
1.356552544424136386e+03 3.162277660168379134e-02
1.435819602949695536e+03 5.623413251903491145e-02
1.535388879806172554e+03 1.000000000000000056e-01
1.656183282366210278e+03 1.778279410038922925e-01
1.799518650740398471e+03 3.162277660168379412e-01
1.952658054285741855e+03 5.623413251903490728e-01
2.133603951558713561e+03 1.000000000000000000e+00
2.377529905103487181e+03 1.778279410038922759e+00
2.645310348158667239e+03 3.162277660168379523e+00
2.900532621201572510e+03 5.623413251903491172e+00
3.152440796964803667e+03 1.000000000000000000e+01
3.407826523537477442e+03 1.778279410038922848e+01
3.674999146650281546e+03 3.162277660168379256e+01
3.960471728693476962e+03 5.623413251903490817e+01
4.271178992783491594e+03 1.000000000000000000e+02
4.610292660413448175e+03 1.778279410038922776e+02
4.995259943291329364e+03 3.162277660168379612e+02
