# Temperature (K), Pressure (bars)
1.199551553546436253e+03 3.162277660168379530e-05
1.237604029243605510e+03 5.623413251903490700e-05
1.275656508136861930e+03 1.000000000000000048e-04
1.318150372593483098e+03 1.778279410038922698e-04
1.363253295153389445e+03 3.162277660168379394e-04
1.411732570929912526e+03 5.623413251903490971e-04
1.466392732442310944e+03 1.000000000000000021e-03
1.528847009207244582e+03 1.778279410038922752e-03
1.598460620862376800e+03 3.162277660168379394e-03
1.670112225196560303e+03 5.623413251903490971e-03
1.754150092122624073e+03 1.000000000000000021e-02
1.862305008326096868e+03 1.778279410038922925e-02
1.978272470190608601e+03 3.162277660168379134e-02
2.087083065723086293e+03 5.623413251903491145e-02
2.220705532637223769e+03 1.000000000000000056e-01
2.409593126961929556e+03 1.778279410038922925e-01
2.611481974559781975e+03 3.162277660168379412e-01
2.799313365598026394e+03 5.623413251903490728e-01
2.988486763938901277e+03 1.000000000000000000e+00
3.184048145543046303e+03 1.778279410038922759e+00
3.389109797122327564e+03 3.162277660168379523e+00
3.606667739519478801e+03 5.623413251903491172e+00
3.840656589730098858e+03 1.000000000000000000e+01
4.096196951713592171e+03 1.778279410038922848e+01
4.381172244998100723e+03 3.162277660168379256e+01
4.702140220335400954e+03 5.623413251903490817e+01
5.068230127946525499e+03 1.000000000000000000e+02
5.484296181459485524e+03 1.778279410038922776e+02
5.978864242105204539e+03 3.162277660168379612e+02
