# Temperature (K), Pressure (bars)
1.515142355828731979e+03 9.999999999999999547e-07
1.564752162497107747e+03 1.778279410038922901e-06
1.614361969165484197e+03 3.162277660168379191e-06
1.664552708070371636e+03 5.623413251903491208e-06
1.717447483939807626e+03 1.000000000000000082e-05
1.769828249793497434e+03 1.778279410038922901e-05
1.821514841111500346e+03 3.162277660168379530e-05
1.872722281495409788e+03 5.623413251903490700e-05
1.923224056700295705e+03 1.000000000000000048e-04
1.974722312135876336e+03 1.778279410038922698e-04
2.028645249345867114e+03 3.162277660168379394e-04
2.086431816857576905e+03 5.623413251903490971e-04
2.148792269777381080e+03 1.000000000000000021e-03
2.220528823067562371e+03 1.778279410038922752e-03
2.311190032008348680e+03 3.162277660168379394e-03
2.420751315874036663e+03 5.623413251903490971e-03
2.541333189017918812e+03 1.000000000000000021e-02
2.670161874990155411e+03 1.778279410038922925e-02
2.808123086409383632e+03 3.162277660168379134e-02
2.956839090683515678e+03 5.623413251903491145e-02
3.118715211494449250e+03 1.000000000000000056e-01
3.296472941759569039e+03 1.778279410038922925e-01
3.492332196135076629e+03 3.162277660168379412e-01
3.708444100466593682e+03 5.623413251903490728e-01
3.949168878372164727e+03 1.000000000000000000e+00
4.223217464467632453e+03 1.778279410038922759e+00
4.537891724664064895e+03 3.162277660168379523e+00
4.918584046727466557e+03 5.623413251903491172e+00
5.410368675666994022e+03 1.000000000000000000e+01
6.082835491084654677e+03 1.778279410038922848e+01
7.050690016429655770e+03 3.162277660168379256e+01
8.485007190988009825e+03 5.623413251903490817e+01
1.000000000000000000e+04 1.000000000000000000e+02
1.000000000000000000e+04 1.778279410038922776e+02
1.000000000000000000e+04 3.162277660168379612e+02
