# Temperature (K), Pressure (bars)
9.392062313358524079e+02 5.623413251903490971e-04
9.718234356243250431e+02 1.000000000000000021e-03
1.004440639353044730e+03 1.778279410038922752e-03
1.029920784637276483e+03 3.162277660168379394e-03
1.049529226689805682e+03 5.623413251903490971e-03
1.068246773401218661e+03 1.000000000000000021e-02
1.090500955528833856e+03 1.778279410038922925e-02
1.119392547888420950e+03 3.162277660168379134e-02
1.156117662643079484e+03 5.623413251903491145e-02
1.202071960526602425e+03 1.000000000000000056e-01
1.258658966406306718e+03 1.778279410038922925e-01
1.330384726427541864e+03 3.162277660168379412e-01
1.423333282403477824e+03 5.623413251903490728e-01
1.542206803091955862e+03 1.000000000000000000e+00
1.695806091992647907e+03 1.778279410038922759e+00
1.910840643484566726e+03 3.162277660168379523e+00
2.193688912100523794e+03 5.623413251903491172e+00
2.498037580101208277e+03 1.000000000000000000e+01
2.796322858539030221e+03 1.778279410038922848e+01
3.095694280332259950e+03 3.162277660168379256e+01
3.397547341674138352e+03 5.623413251903490817e+01
3.709115288862743910e+03 1.000000000000000000e+02
4.035346521741673769e+03 1.778279410038922776e+02
4.391251746296416968e+03 3.162277660168379612e+02
