# Temperature (K), Pressure (bars)
8.427943415087436279e+02 1.000000000000000021e-03
8.860573719769189438e+02 1.778279410038922752e-03
9.293204037511397928e+02 3.162277660168379394e-03
9.717867254175132530e+02 5.623413251903490971e-03
1.014403735695708860e+03 1.000000000000000021e-02
1.057504074351855024e+03 1.778279410038922925e-02
1.101863022420671541e+03 3.162277660168379134e-02
1.149800815779989307e+03 5.623413251903491145e-02
1.204928094292270089e+03 1.000000000000000056e-01
1.271871549927711840e+03 1.778279410038922925e-01
1.358405645864617554e+03 3.162277660168379412e-01
1.483313086066712003e+03 5.623413251903490728e-01
1.653373204636711080e+03 1.000000000000000000e+00
1.874220659838116035e+03 1.778279410038922759e+00
2.151567630827853463e+03 3.162277660168379523e+00
2.447545195496193628e+03 5.623413251903491172e+00
2.734773666777805374e+03 1.000000000000000000e+01
3.017956648463555666e+03 1.778279410038922848e+01
3.302702466734016070e+03 3.162277660168379256e+01
3.594863636268577011e+03 5.623413251903490817e+01
3.902364259761020548e+03 1.000000000000000000e+02
4.229939818510549230e+03 1.778279410038922776e+02
4.592399382908641201e+03 3.162277660168379612e+02
