# Temperature (K), Pressure (bars)
1.003296262961835737e+03 5.623413251903490700e-05
1.052897918791366465e+03 1.000000000000000048e-04
1.102499575607239649e+03 1.778279410038922698e-04
1.147879427590339901e+03 3.162277660168379394e-04
1.191940490710706854e+03 5.623413251903490971e-04
1.238626233096534634e+03 1.000000000000000021e-03
1.288864716844791019e+03 1.778279410038922752e-03
1.343211916221068805e+03 3.162277660168379394e-03
1.403075082685155849e+03 5.623413251903490971e-03
1.471158421592465402e+03 1.000000000000000021e-02
1.554990918109818267e+03 1.778279410038922925e-02
1.667216913485208352e+03 3.162277660168379134e-02
1.814986906960064289e+03 5.623413251903491145e-02
2.009148795231915983e+03 1.000000000000000056e-01
2.241442324029243537e+03 1.778279410038922925e-01
2.468237675219366338e+03 3.162277660168379412e-01
2.675199561116424775e+03 5.623413251903490728e-01
2.876645767217425146e+03 1.000000000000000000e+00
3.078996292916470338e+03 1.778279410038922759e+00
3.286616819266392213e+03 3.162277660168379523e+00
3.503593221681734576e+03 5.623413251903491172e+00
3.734589464357909947e+03 1.000000000000000000e+01
3.984906319802362304e+03 1.778279410038922848e+01
4.262290731664448685e+03 3.162277660168379256e+01
4.572441324063041066e+03 5.623413251903490817e+01
4.923472306138926797e+03 1.000000000000000000e+02
5.319240765656775693e+03 1.778279410038922776e+02
5.785251943178776855e+03 3.162277660168379612e+02
