# Temperature (K), Pressure (bars)
8.720758779109220313e+02 3.162277660168379394e-04
9.271711969629859595e+02 5.623413251903490971e-04
9.822665170211020040e+02 1.000000000000000021e-03
1.035540257243995711e+03 1.778279410038922752e-03
1.087995701497892696e+03 3.162277660168379394e-03
1.142401381564313397e+03 5.623413251903490971e-03
1.201799664909889316e+03 1.000000000000000021e-02
1.270264439934139773e+03 1.778279410038922925e-02
1.354853923881144510e+03 3.162277660168379134e-02
1.471709549097732634e+03 5.623413251903491145e-02
1.633835473302382752e+03 1.000000000000000056e-01
1.849245550282911609e+03 1.778279410038922925e-01
2.107836313828908715e+03 3.162277660168379412e-01
2.366369184930561005e+03 5.623413251903490728e-01
2.603993775837745488e+03 1.000000000000000000e+00
2.829624585777134598e+03 1.778279410038922759e+00
3.050060401717334116e+03 3.162277660168379523e+00
3.272254026541683743e+03 5.623413251903491172e+00
3.502708631483461886e+03 1.000000000000000000e+01
3.747506180303179008e+03 1.778279410038922848e+01
4.014773014143910132e+03 3.162277660168379256e+01
4.309064444755015757e+03 5.623413251903490817e+01
4.637368971288922694e+03 1.000000000000000000e+02
5.002922609835669391e+03 1.778279410038922776e+02
5.426811055921245497e+03 3.162277660168379612e+02
