# Temperature (K), Pressure (bars)
1.380239543622125439e+03 9.999999999999999547e-07
1.385253789589507051e+03 1.778279410038922901e-06
1.390268035559329974e+03 3.162277660168379191e-06
1.401344285831639354e+03 5.623413251903491208e-06
1.418927595328441839e+03 1.000000000000000082e-05
1.441545550707001439e+03 1.778279410038922901e-05
1.471136497298066388e+03 3.162277660168379530e-05
1.510174679182751788e+03 5.623413251903490700e-05
1.561960772838085632e+03 1.000000000000000048e-04
1.628509549378535212e+03 1.778279410038922698e-04
1.698911570960274958e+03 3.162277660168379394e-04
1.766542269809257277e+03 5.623413251903490971e-04
1.836537317234020520e+03 1.000000000000000021e-03
1.911293946969746230e+03 1.778279410038922752e-03
1.990902587987896368e+03 3.162277660168379394e-03
2.081342155772359547e+03 5.623413251903490971e-03
2.196799570259355278e+03 1.000000000000000021e-02
2.336459520432576937e+03 1.778279410038922925e-02
2.483395669099360930e+03 3.162277660168379134e-02
2.631546946411430326e+03 5.623413251903491145e-02
2.784125586581849348e+03 1.000000000000000056e-01
2.943595796646771305e+03 1.778279410038922925e-01
3.112206159314233446e+03 3.162277660168379412e-01
3.291910279926978546e+03 5.623413251903490728e-01
3.484226049256445094e+03 1.000000000000000000e+00
3.691088018543609905e+03 1.778279410038922759e+00
3.916107930318534272e+03 3.162277660168379523e+00
4.164732824847528718e+03 5.623413251903491172e+00
4.444075376279917691e+03 1.000000000000000000e+01
4.763658626468322836e+03 1.778279410038922848e+01
5.138592878268126697e+03 3.162277660168379256e+01
5.586403566661781952e+03 5.623413251903490817e+01
6.135435937667102735e+03 1.000000000000000000e+02
6.830404318307410904e+03 1.778279410038922776e+02
7.744690775126871813e+03 3.162277660168379612e+02
