# Temperature (K), Pressure (bars)
1.047515501302006896e+03 1.000000000000000048e-04
1.094790157590764920e+03 1.778279410038922698e-04
1.142064815612730627e+03 3.162277660168379394e-04
1.189071639755970864e+03 5.623413251903490971e-04
1.237674582170148597e+03 1.000000000000000021e-03
1.288827091307696037e+03 1.778279410038922752e-03
1.342983764223519756e+03 3.162277660168379394e-03
1.401973994367010619e+03 5.623413251903490971e-03
1.467349002960614143e+03 1.000000000000000021e-02
1.545017332049060315e+03 1.778279410038922925e-02
1.635930598603966928e+03 3.162277660168379134e-02
1.745842272306234008e+03 5.623413251903491145e-02
1.882999418951049392e+03 1.000000000000000056e-01
2.056009412310999323e+03 1.778279410038922925e-01
2.274582414580285331e+03 3.162277660168379412e-01
2.505657842574616097e+03 5.623413251903490728e-01
2.722709911439040297e+03 1.000000000000000000e+00
2.934815270605245132e+03 1.778279410038922759e+00
3.148230097008952725e+03 3.162277660168379523e+00
3.367831578842031377e+03 5.623413251903491172e+00
3.598343946273112124e+03 1.000000000000000000e+01
3.845081161789011730e+03 1.778279410038922848e+01
4.115748563099485182e+03 3.162277660168379256e+01
4.415710342734018923e+03 5.623413251903490817e+01
4.752360197058695121e+03 1.000000000000000000e+02
5.129488103149191375e+03 1.778279410038922776e+02
5.569200856450609535e+03 3.162277660168379612e+02
