# Temperature (K), Pressure (bars)
2.169709661872415836e+03 9.999999999999999547e-07
2.179855867599567318e+03 1.778279410038922901e-06
2.190002073329497307e+03 3.162277660168379191e-06
2.201123684564672203e+03 5.623413251903491208e-06
2.211839346631954413e+03 1.000000000000000082e-05
2.222729043813927092e+03 1.778279410038922901e-05
2.237199716888424973e+03 3.162277660168379530e-05
2.256011728687074083e+03 5.623413251903490700e-05
2.278071155971703774e+03 1.000000000000000048e-04
2.302461052132313853e+03 1.778279410038922698e-04
2.327973774475129176e+03 3.162277660168379394e-04
2.354417193195009531e+03 5.623413251903490971e-04
2.383054074429990578e+03 1.000000000000000021e-03
2.415904742239193183e+03 1.778279410038922752e-03
2.454331597547805359e+03 3.162277660168379394e-03
2.500593710322697007e+03 5.623413251903490971e-03
2.555964860461415810e+03 1.000000000000000021e-02
2.627121286252971458e+03 1.778279410038922925e-02
2.726133335590006027e+03 3.162277660168379134e-02
2.849269559065734029e+03 5.623413251903491145e-02
2.986505531168494599e+03 1.000000000000000056e-01
3.137539072935172953e+03 1.778279410038922925e-01
3.305163690943234542e+03 3.162277660168379412e-01
3.491993561710821268e+03 5.623413251903490728e-01
3.699879594581261699e+03 1.000000000000000000e+00
3.930778323924709184e+03 1.778279410038922759e+00
4.188989217125237701e+03 3.162277660168379523e+00
4.482797560475031787e+03 5.623413251903491172e+00
4.820238459542752935e+03 1.000000000000000000e+01
5.227200665880404813e+03 1.778279410038922848e+01
5.735243232181009262e+03 3.162277660168379256e+01
6.399697232416343468e+03 5.623413251903490817e+01
7.321697035594696899e+03 1.000000000000000000e+02
8.645246396780648865e+03 1.778279410038922776e+02
1.041961454408036116e+04 3.162277660168379612e+02
