# Temperature (K), Pressure (bars)
9.847724895330065920e+02 3.162277660168379530e-05
1.016448093063118449e+03 5.623413251903490700e-05
1.048123701026130220e+03 1.000000000000000048e-04
1.086919752102458915e+03 1.778279410038922698e-04
1.150863360614627481e+03 3.162277660168379394e-04
1.248006871673958130e+03 5.623413251903490971e-04
1.375054792494383264e+03 1.000000000000000021e-03
1.534328318437103690e+03 1.778279410038922752e-03
1.669895962863988188e+03 3.162277660168379394e-03
1.743943520655141356e+03 5.623413251903490971e-03
1.790010224054524542e+03 1.000000000000000021e-02
1.830864606321704741e+03 1.778279410038922925e-02
1.869425379265293259e+03 3.162277660168379134e-02
1.909033418302271684e+03 5.623413251903491145e-02
1.956046768059324222e+03 1.000000000000000056e-01
2.013462854953044825e+03 1.778279410038922925e-01
2.088159119378810828e+03 3.162277660168379412e-01
2.177115467808356243e+03 5.623413251903490728e-01
2.308185070644104599e+03 1.000000000000000000e+00
2.523880743805997554e+03 1.778279410038922759e+00
2.776013238906221432e+03 3.162277660168379523e+00
3.019078657613801624e+03 5.623413251903491172e+00
3.263038115740699595e+03 1.000000000000000000e+01
3.514179976736949357e+03 1.778279410038922848e+01
3.779963318926518696e+03 3.162277660168379256e+01
4.066754189216910618e+03 5.623413251903490817e+01
4.381408988004575804e+03 1.000000000000000000e+02
4.727027427981564870e+03 1.778279410038922776e+02
5.121925399567280692e+03 3.162277660168379612e+02
