# Temperature (K), Pressure (bars)
1.589257674258364204e+03 1.000000000000000082e-05
1.610403002368714624e+03 1.778279410038922901e-05
1.631548333866747043e+03 3.162277660168379530e-05
1.656861381583247748e+03 5.623413251903490700e-05
1.688638933693896206e+03 1.000000000000000048e-04
1.726653346661968499e+03 1.778279410038922698e-04
1.766826341006754092e+03 3.162277660168379394e-04
1.808498762806775858e+03 5.623413251903490971e-04
1.850490580653042798e+03 1.000000000000000021e-03
1.891601521860199227e+03 1.778279410038922752e-03
1.933532733762346652e+03 3.162277660168379394e-03
1.977402126556685062e+03 5.623413251903490971e-03
2.024067959506229045e+03 1.000000000000000021e-02
2.074625994291540792e+03 1.778279410038922925e-02
2.129571524903989939e+03 3.162277660168379134e-02
2.194015861691071677e+03 5.623413251903491145e-02
2.269785855095884926e+03 1.000000000000000056e-01
2.376467791220225081e+03 1.778279410038922925e-01
2.539470150193081736e+03 3.162277660168379412e-01
2.730147326779469950e+03 5.623413251903490728e-01
2.921124339985023198e+03 1.000000000000000000e+00
3.117995935907906187e+03 1.778279410038922759e+00
3.324132974497578743e+03 3.162277660168379523e+00
3.541996680115127674e+03 5.623413251903491172e+00
3.774978387119657327e+03 1.000000000000000000e+01
4.027965885326227180e+03 1.778279410038922848e+01
4.308409118550218409e+03 3.162277660168379256e+01
4.622880418937927061e+03 5.623413251903490817e+01
4.979979219114907210e+03 1.000000000000000000e+02
5.383589656683764588e+03 1.778279410038922776e+02
5.861444409379516401e+03 3.162277660168379612e+02
