# Temperature (K), Pressure (bars)
1.358885955997045130e+03 9.999999999999999547e-07
1.379624317141771371e+03 1.778279410038922901e-06
1.400362678287760446e+03 3.162277660168379191e-06
1.426201500120751689e+03 5.623413251903491208e-06
1.457640726740998161e+03 1.000000000000000082e-05
1.495803121745925637e+03 1.778279410038922901e-05
1.542733279731014363e+03 3.162277660168379530e-05
1.602450288251784059e+03 5.623413251903490700e-05
1.671787076346799040e+03 1.000000000000000048e-04
1.741460746122905675e+03 1.778279410038922698e-04
1.811042958859593455e+03 3.162277660168379394e-04
1.882629638829594796e+03 5.623413251903490971e-04
1.957984525176595525e+03 1.000000000000000021e-03
2.038819171635888324e+03 1.778279410038922752e-03
2.134529458194549989e+03 3.162277660168379394e-03
2.255489036450780986e+03 5.623413251903490971e-03
2.389392160493530810e+03 1.000000000000000021e-02
2.525769477634066789e+03 1.778279410038922925e-02
2.667454682438313739e+03 3.162277660168379134e-02
2.816095498233525177e+03 5.623413251903491145e-02
2.973459719915293135e+03 1.000000000000000056e-01
3.141536533030633564e+03 1.778279410038922925e-01
3.322255495027558482e+03 3.162277660168379412e-01
3.517122494583689331e+03 5.623413251903490728e-01
3.728272019518923116e+03 1.000000000000000000e+00
3.959921208849844334e+03 1.778279410038922759e+00
4.219008068745218225e+03 3.162277660168379523e+00
4.515298071299199364e+03 5.623413251903491172e+00
4.860103037971020967e+03 1.000000000000000000e+01
5.278725249114348117e+03 1.778279410038922848e+01
5.805493697007818810e+03 3.162277660168379256e+01
6.496936795254620847e+03 5.623413251903490817e+01
7.446454740069931177e+03 1.000000000000000000e+02
8.810340775430855501e+03 1.778279410038922776e+02
1.062404331387468665e+04 3.162277660168379612e+02
