# Temperature (K), Pressure (bars)
2.192685521414910909e+04 9.999999999999999547e-07
2.653537943204736439e+04 1.778279410038922901e-06
3.210575017422186284e+04 3.162277660168379191e-06
3.844812085472381295e+04 5.623413251903491208e-06
4.518162054109528253e+04 1.000000000000000082e-05
5.178537527400475665e+04 1.778279410038922901e-05
5.781228641569149477e+04 3.162277660168379530e-05
6.307010294952682307e+04 5.623413251903490700e-05
6.761496360362872656e+04 1.000000000000000048e-04
7.163713897001052101e+04 1.778279410038922698e-04
7.534343133453596965e+04 3.162277660168379394e-04
7.890762120940277237e+04 5.623413251903490971e-04
8.246828948196867714e+04 1.000000000000000021e-03
8.613105670844542328e+04 1.778279410038922752e-03
8.999718584037944674e+04 3.162277660168379394e-03
9.416291193765513890e+04 5.623413251903490971e-03
9.874043748359128949e+04 1.000000000000000021e-02
1.038731206256886362e+05 1.778279410038922925e-02
1.097409454491996294e+05 3.162277660168379134e-02
1.165805360179332638e+05 5.623413251903491145e-02
1.247092914458260348e+05 1.000000000000000056e-01
1.345360507268540969e+05 1.778279410038922925e-01
1.466013057583931950e+05 3.162277660168379412e-01
1.616034920478664571e+05 5.623413251903490728e-01
1.804264484994976374e+05 1.000000000000000000e+00
2.042131601823403907e+05 1.778279410038922759e+00
2.343812409137507202e+05 3.162277660168379523e+00
2.727201158466516063e+05 5.623413251903491172e+00
3.214097937437240034e+05 1.000000000000000000e+01
3.831195363090586034e+05 1.778279410038922848e+01
4.610383598907677224e+05 3.162277660168379256e+01
5.587575317047688877e+05 5.623413251903490817e+01
6.799520978659015382e+05 1.000000000000000000e+02
8.278520005925138248e+05 1.778279410038922776e+02
1.004363012982868007e+06 3.162277660168379612e+02
