# Temperature (K), Pressure (bars)
8.556275415215425255e+02 1.000000000000000082e-05
9.016631094903962094e+02 1.778279410038922901e-05
9.476918205729273268e+02 3.162277660168379530e-05
9.907056780476286804e+02 5.623413251903490700e-05
1.038355111144045850e+03 1.000000000000000048e-04
1.093455323554707775e+03 1.778279410038922698e-04
1.149038614251534000e+03 3.162277660168379394e-04
1.198465755398927286e+03 5.623413251903490971e-04
1.236459804978121156e+03 1.000000000000000021e-03
1.278603691512381602e+03 1.778279410038922752e-03
1.339808597036536412e+03 3.162277660168379394e-03
1.449538830070843687e+03 5.623413251903490971e-03
1.640238400962384731e+03 1.000000000000000021e-02
1.846976908247886058e+03 1.778279410038922925e-02
2.033474763759525104e+03 3.162277660168379134e-02
2.231809772925996640e+03 5.623413251903491145e-02
2.428975821475316479e+03 1.000000000000000056e-01
2.614164276385172798e+03 1.778279410038922925e-01
2.796932900446418898e+03 3.162277660168379412e-01
2.981142337053364827e+03 5.623413251903490728e-01
3.168976728267087310e+03 1.000000000000000000e+00
3.363335337771643935e+03 1.778279410038922759e+00
3.568446167718244396e+03 3.162277660168379523e+00
3.789067944353362691e+03 5.623413251903491172e+00
4.030241391053267307e+03 1.000000000000000000e+01
4.297644790991338596e+03 1.778279410038922848e+01
4.598110990421033421e+03 3.162277660168379256e+01
4.940765257799109349e+03 5.623413251903490817e+01
5.342174500950275615e+03 1.000000000000000000e+02
5.813617263339995588e+03 1.778279410038922776e+02
6.377010459102091772e+03 3.162277660168379612e+02
