# Temperature (K), Pressure (bars)
1.215385541841239956e+03 1.778279410038922901e-05
1.245182892863942470e+03 3.162277660168379530e-05
1.274980247205205842e+03 5.623413251903490700e-05
1.312618994381979974e+03 1.000000000000000048e-04
1.353569121367554544e+03 1.778279410038922698e-04
1.400846577404930485e+03 3.162277660168379394e-04
1.466819349551800315e+03 5.623413251903490971e-04
1.539424362023355798e+03 1.000000000000000021e-03
1.602332309699672351e+03 1.778279410038922752e-03
1.660789164461010841e+03 3.162277660168379394e-03
1.721286816070432451e+03 5.623413251903490971e-03
1.784827219923765142e+03 1.000000000000000021e-02
1.853458134096511458e+03 1.778279410038922925e-02
1.930416682013647232e+03 3.162277660168379134e-02
2.019979609978782037e+03 5.623413251903491145e-02
2.130560092993505805e+03 1.000000000000000056e-01
2.287750739167736810e+03 1.778279410038922925e-01
2.492268067643950417e+03 3.162277660168379412e-01
2.700469285687851880e+03 5.623413251903490728e-01
2.898305891814304687e+03 1.000000000000000000e+00
3.098937917670850766e+03 1.778279410038922759e+00
3.306215396324912035e+03 3.162277660168379523e+00
3.523431917082803466e+03 5.623413251903491172e+00
3.755054676453056345e+03 1.000000000000000000e+01
4.006434273000521898e+03 1.778279410038922848e+01
4.285325777354723868e+03 3.162277660168379256e+01
4.597718755938421964e+03 5.623413251903490817e+01
4.951976689513103338e+03 1.000000000000000000e+02
5.351945783518929602e+03 1.778279410038922776e+02
5.824756385800985299e+03 3.162277660168379612e+02
