# Temperature (K), Pressure (bars)
2.130085505832428680e+03 9.999999999999999547e-07
2.142510490835214114e+03 1.778279410038922901e-06
2.154935475855034838e+03 3.162277660168379191e-06
2.166395802049924896e+03 5.623413251903491208e-06
2.174861323304929101e+03 1.000000000000000082e-05
2.181702686764816008e+03 1.778279410038922901e-05
2.191034272786067959e+03 3.162277660168379530e-05
2.205310405513153455e+03 5.623413251903490700e-05
2.224354892531806399e+03 1.000000000000000048e-04
2.246716157732586908e+03 1.778279410038922698e-04
2.270906640270303797e+03 3.162277660168379394e-04
2.296046139716289872e+03 5.623413251903490971e-04
2.322151549383640031e+03 1.000000000000000021e-03
2.349751104500865949e+03 1.778279410038922752e-03
2.380529533154708588e+03 3.162277660168379394e-03
2.415417798234264865e+03 5.623413251903490971e-03
2.457479876894245535e+03 1.000000000000000021e-02
2.505760922901411504e+03 1.778279410038922925e-02
2.571654103629160090e+03 3.162277660168379134e-02
2.677902696317770278e+03 5.623413251903491145e-02
2.812665727198741934e+03 1.000000000000000056e-01
2.958009667323754002e+03 1.778279410038922925e-01
3.116068026792098408e+03 3.162277660168379412e-01
3.289427247491511025e+03 5.623413251903490728e-01
3.479769140995493672e+03 1.000000000000000000e+00
3.687865578927790921e+03 1.778279410038922759e+00
3.915436834222784000e+03 3.162277660168379523e+00
4.166716807682634681e+03 5.623413251903491172e+00
4.448535934565290518e+03 1.000000000000000000e+01
4.770459872347306373e+03 1.778279410038922848e+01
5.147205227078097778e+03 3.162277660168379256e+01
5.597901422317086144e+03 5.623413251903490817e+01
6.151428743597496577e+03 1.000000000000000000e+02
6.855256101711016527e+03 1.778279410038922776e+02
7.784899640096653457e+03 3.162277660168379612e+02
