# Temperature (K), Pressure (bars)
2.229774019893111927e+03 1.778279410038922901e-06
2.245700614553299147e+03 3.162277660168379191e-06
2.261627214716898834e+03 5.623413251903491208e-06
2.283995039570959761e+03 1.000000000000000082e-05
2.311671535767700334e+03 1.778279410038922901e-05
2.342517304127194620e+03 3.162277660168379530e-05
2.377075487566192351e+03 5.623413251903490700e-05
2.416703803721754866e+03 1.000000000000000048e-04
2.462913106453168893e+03 1.778279410038922698e-04
2.515191063306508568e+03 3.162277660168379394e-04
2.572193758413359774e+03 5.623413251903490971e-04
2.632815786741080956e+03 1.000000000000000021e-03
2.694251161812686405e+03 1.778279410038922752e-03
2.753115954751219761e+03 3.162277660168379394e-03
2.805933831524646394e+03 5.623413251903490971e-03
2.850935298389096261e+03 1.000000000000000021e-02
2.891309901526401063e+03 1.778279410038922925e-02
2.937190730908523165e+03 3.162277660168379134e-02
2.993667813318241315e+03 5.623413251903491145e-02
3.082827008345394461e+03 1.000000000000000056e-01
3.227701267171191830e+03 1.778279410038922925e-01
3.402246758387861064e+03 3.162277660168379412e-01
3.591526088140798493e+03 5.623413251903490728e-01
3.808062653082370161e+03 1.000000000000000000e+00
4.056424901128574675e+03 1.778279410038922759e+00
4.342510664337602975e+03 3.162277660168379523e+00
4.664949987056174905e+03 5.623413251903491172e+00
5.053900683852917609e+03 1.000000000000000000e+01
5.546109647518444035e+03 1.778279410038922848e+01
6.206471829318753407e+03 3.162277660168379256e+01
7.156605874034256885e+03 5.623413251903490817e+01
8.546794873193275635e+03 1.000000000000000000e+02
1.000000000000000000e+04 1.778279410038922776e+02
1.000000000000000000e+04 3.162277660168379612e+02
