# Temperature (K), Pressure (bars)
1.000295877871306402e+03 1.000000000000000048e-04
1.052203057444979549e+03 1.778279410038922698e-04
1.104110238873075332e+03 3.162277660168379394e-04
1.154850174231888786e+03 5.623413251903490971e-04
1.206642886309108235e+03 1.000000000000000021e-03
1.260610627540814221e+03 1.778279410038922752e-03
1.316876517297671171e+03 3.162277660168379394e-03
1.376932253797622479e+03 5.623413251903490971e-03
1.442458121131236794e+03 1.000000000000000021e-02
1.519522246280992931e+03 1.778279410038922925e-02
1.614361275667989958e+03 3.162277660168379134e-02
1.752333752246692256e+03 5.623413251903491145e-02
1.959331192185948566e+03 1.000000000000000056e-01
2.198868015242646379e+03 1.778279410038922925e-01
2.426950812993678483e+03 3.162277660168379412e-01
2.640403684325835911e+03 5.623413251903490728e-01
2.846067491798266474e+03 1.000000000000000000e+00
3.050381954287856388e+03 1.778279410038922759e+00
3.258441903384823036e+03 3.162277660168379523e+00
3.474933523762576897e+03 5.623413251903491172e+00
3.704814801788522800e+03 1.000000000000000000e+01
3.953440451882403977e+03 1.778279410038922848e+01
4.228598639989001640e+03 3.162277660168379256e+01
4.535658519197005262e+03 5.623413251903490817e+01
4.882442043103135802e+03 1.000000000000000000e+02
5.272624357218937803e+03 1.778279410038922776e+02
5.731156508400891653e+03 3.162277660168379612e+02
