# Temperature (K), Pressure (bars)
1.594134530201251664e+03 9.999999999999999547e-07
1.680513672913059281e+03 1.778279410038922901e-06
1.766892815626444872e+03 3.162277660168379191e-06
1.835711959389510412e+03 5.623413251903491208e-06
1.876136319323668886e+03 1.000000000000000082e-05
1.915313546347180363e+03 1.778279410038922901e-05
1.962038600278083777e+03 3.162277660168379530e-05
2.008675663996773437e+03 5.623413251903490700e-05
2.054504248213598657e+03 1.000000000000000048e-04
2.096696672631902402e+03 1.778279410038922698e-04
2.135342624048345897e+03 3.162277660168379394e-04
2.171269121416049529e+03 5.623413251903490971e-04
2.204738216712305075e+03 1.000000000000000021e-03
2.236243794877441815e+03 1.778279410038922752e-03
2.268552327455400700e+03 3.162277660168379394e-03
2.303610117937174437e+03 5.623413251903490971e-03
2.347765391651554637e+03 1.000000000000000021e-02
2.399671352197511624e+03 1.778279410038922925e-02
2.477027674039511112e+03 3.162277660168379134e-02
2.607197201164655780e+03 5.623413251903491145e-02
2.759251846659559305e+03 1.000000000000000056e-01
2.911617795843599197e+03 1.778279410038922925e-01
3.076758870436182406e+03 3.162277660168379412e-01
3.255972926414407993e+03 5.623413251903490728e-01
3.448582738040970071e+03 1.000000000000000000e+00
3.655077814213474539e+03 1.778279410038922759e+00
3.878603891870416192e+03 3.162277660168379523e+00
4.124446529634615217e+03 5.623413251903491172e+00
4.399456231190949438e+03 1.000000000000000000e+01
4.712579979988730884e+03 1.778279410038922848e+01
5.077826857479431055e+03 3.162277660168379256e+01
5.511382058007924570e+03 5.623413251903490817e+01
6.038816083653288842e+03 1.000000000000000000e+02
6.700365497481834609e+03 1.778279410038922776e+02
7.561081088449330309e+03 3.162277660168379612e+02
