# Temperature (K), Pressure (bars)
8.594647333733607866e+02 3.162277660168379530e-05
9.064261373319081940e+02 5.623413251903490700e-05
9.533875404492173402e+02 1.000000000000000048e-04
9.978097265818767028e+02 1.778279410038922698e-04
1.044408246190546151e+03 3.162277660168379394e-04
1.094411658189804484e+03 5.623413251903490971e-04
1.143206196558873444e+03 1.000000000000000021e-03
1.188419715568232277e+03 1.778279410038922752e-03
1.228880516855801261e+03 3.162277660168379394e-03
1.264631927611133960e+03 5.623413251903490971e-03
1.300207140175673885e+03 1.000000000000000021e-02
1.341304763772018532e+03 1.778279410038922925e-02
1.392923444388569351e+03 3.162277660168379134e-02
1.447126321436552644e+03 5.623413251903491145e-02
1.511745050982436624e+03 1.000000000000000056e-01
1.656938554914920587e+03 1.778279410038922925e-01
1.905204273929902683e+03 3.162277660168379412e-01
2.180437635770632824e+03 5.623413251903490728e-01
2.439476568589961516e+03 1.000000000000000000e+00
2.685218680623318050e+03 1.778279410038922759e+00
2.919974189805912374e+03 3.162277660168379523e+00
3.150851755428141132e+03 5.623413251903491172e+00
3.385676387784412327e+03 1.000000000000000000e+01
3.631487088581875014e+03 1.778279410038922848e+01
3.896839217368182744e+03 3.162277660168379256e+01
4.186396769757396214e+03 5.623413251903490817e+01
4.506851863354856505e+03 1.000000000000000000e+02
4.861320625250365083e+03 1.778279410038922776e+02
5.268917625311263691e+03 3.162277660168379612e+02
