# Temperature (K), Pressure (bars)
2.176032228759514965e+03 9.999999999999999547e-07
2.192396554623941029e+03 1.778279410038922901e-06
2.208760880491045555e+03 3.162277660168379191e-06
2.227170532573649780e+03 5.623413251903491208e-06
2.245477606553967689e+03 1.000000000000000082e-05
2.262881315131825886e+03 1.778279410038922901e-05
2.280569709353706457e+03 3.162277660168379530e-05
2.299662756876366075e+03 5.623413251903490700e-05
2.320724321004483954e+03 1.000000000000000048e-04
2.342977000058632257e+03 1.778279410038922698e-04
2.365612695514044844e+03 3.162277660168379394e-04
2.389158333441920149e+03 5.623413251903490971e-04
2.415256708717261517e+03 1.000000000000000021e-03
2.445771631278659243e+03 1.778279410038922752e-03
2.482173416463735066e+03 3.162277660168379394e-03
2.526253677943178900e+03 5.623413251903490971e-03
2.579948135554276632e+03 1.000000000000000021e-02
2.646627145926821868e+03 1.778279410038922925e-02
2.737936254611595359e+03 3.162277660168379134e-02
2.859036888986220220e+03 5.623413251903491145e-02
2.997976734838898665e+03 1.000000000000000056e-01
3.149684253103767333e+03 1.778279410038922925e-01
3.318723365226101123e+03 3.162277660168379412e-01
3.507677602092059715e+03 5.623413251903490728e-01
3.718120938421302071e+03 1.000000000000000000e+00
3.952017752057425241e+03 1.778279410038922759e+00
4.214129013054569441e+03 3.162277660168379523e+00
4.513426509236359379e+03 5.623413251903491172e+00
4.858593408647080651e+03 1.000000000000000000e+01
5.277929628471407341e+03 1.778279410038922848e+01
5.807216971219396328e+03 3.162277660168379256e+01
6.511400280949595071e+03 5.623413251903490817e+01
7.506358929585221631e+03 1.000000000000000000e+02
8.934329818011576208e+03 1.778279410038922776e+02
1.079250477745273929e+04 3.162277660168379612e+02
