# Temperature (K), Pressure (bars)
2.172208370726099020e+03 9.999999999999999547e-07
2.183300942809126354e+03 1.778279410038922901e-06
2.194393514892154144e+03 3.162277660168379191e-06
2.217665785305647205e+03 5.623413251903491208e-06
2.246664781924000636e+03 1.000000000000000082e-05
2.277764903928688454e+03 1.778279410038922901e-05
2.313624432152235386e+03 3.162277660168379530e-05
2.354496855792907354e+03 5.623413251903490700e-05
2.399807481021908643e+03 1.000000000000000048e-04
2.448639695069906793e+03 1.778279410038922698e-04
2.498724677774202519e+03 3.162277660168379394e-04
2.547226069298861603e+03 5.623413251903490971e-04
2.592435587031518935e+03 1.000000000000000021e-03
2.633392231106809959e+03 1.778279410038922752e-03
2.669158295751147307e+03 3.162277660168379394e-03
2.702019227391172535e+03 5.623413251903490971e-03
2.736462652755079944e+03 1.000000000000000021e-02
2.781137206461490223e+03 1.778279410038922925e-02
2.835174633829730283e+03 3.162277660168379134e-02
2.913986728387205403e+03 5.623413251903491145e-02
3.044536744309836649e+03 1.000000000000000056e-01
3.203656260952020602e+03 1.778279410038922925e-01
3.373961998834590304e+03 3.162277660168379412e-01
3.566806181597406976e+03 5.623413251903490728e-01
3.784767431888762076e+03 1.000000000000000000e+00
4.030296280320361802e+03 1.778279410038922759e+00
4.309207274057387622e+03 3.162277660168379523e+00
4.632953352431098210e+03 5.623413251903491172e+00
5.011560388506472918e+03 1.000000000000000000e+01
5.485509069670049939e+03 1.778279410038922848e+01
6.110781629694268304e+03 3.162277660168379256e+01
6.993200729471561317e+03 5.623413251903490817e+01
8.287639674743386422e+03 1.000000000000000000e+02
1.000000000000000000e+04 1.778279410038922776e+02
1.000000000000000000e+04 3.162277660168379612e+02
