# Temperature (K), Pressure (bars)
7.915290056580644205e+02 3.162277660168379394e-04
8.381207931330137626e+02 5.623413251903490971e-04
8.847125817058212078e+02 1.000000000000000021e-03
9.304956198191587191e+02 1.778279410038922752e-03
9.759755679958983592e+02 3.162277660168379394e-03
1.022304898574946606e+03 5.623413251903490971e-03
1.070936092985555206e+03 1.000000000000000021e-02
1.124928930669197143e+03 1.778279410038922925e-02
1.188879625776958392e+03 3.162277660168379134e-02
1.268030006173155698e+03 5.623413251903491145e-02
1.373654790787121556e+03 1.000000000000000056e-01
1.528687612984279895e+03 1.778279410038922925e-01
1.748580168821348025e+03 3.162277660168379412e-01
2.012965004548585512e+03 5.623413251903490728e-01
2.283932873871732227e+03 1.000000000000000000e+00
2.543949251607461065e+03 1.778279410038922759e+00
2.792593179214677093e+03 3.162277660168379523e+00
3.033928368450751350e+03 5.623413251903491172e+00
3.275199156153097192e+03 1.000000000000000000e+01
3.523943236629983403e+03 1.778279410038922848e+01
3.789142894693869948e+03 3.162277660168379256e+01
4.075844902634136361e+03 5.623413251903490817e+01
4.390743780546020389e+03 1.000000000000000000e+02
4.736839210788856690e+03 1.778279410038922776e+02
5.132667531206094282e+03 3.162277660168379612e+02
