# Temperature (K), Pressure (bars)
1.368983523731807509e+03 1.000000000000000082e-05
1.390614168021292016e+03 1.778279410038922901e-05
1.419993976875439330e+03 3.162277660168379530e-05
1.456748006899776556e+03 5.623413251903490700e-05
1.501386048091384737e+03 1.000000000000000048e-04
1.552625285620905515e+03 1.778279410038922698e-04
1.609904611031038257e+03 3.162277660168379394e-04
1.671979656306852348e+03 5.623413251903490971e-04
1.747495094024940499e+03 1.000000000000000021e-03
1.847762612257888577e+03 1.778279410038922752e-03
1.953110726928798385e+03 3.162277660168379394e-03
2.053839828465992468e+03 5.623413251903490971e-03
2.173380121797737957e+03 1.000000000000000021e-02
2.316375834471363305e+03 1.778279410038922925e-02
2.465674162138192514e+03 3.162277660168379134e-02
2.615164629755410715e+03 5.623413251903491145e-02
2.768439060954111483e+03 1.000000000000000056e-01
2.928068390074035506e+03 1.778279410038922925e-01
3.096321358221727678e+03 3.162277660168379412e-01
3.275247411988776548e+03 5.623413251903490728e-01
3.466524187190216253e+03 1.000000000000000000e+00
3.672080399988203681e+03 1.778279410038922759e+00
3.895362534697184856e+03 3.162277660168379523e+00
4.141623200359965267e+03 5.623413251903491172e+00
4.417768152085424845e+03 1.000000000000000000e+01
4.732944652992766351e+03 1.778279410038922848e+01
5.101424461606119621e+03 3.162277660168379256e+01
5.539809638509458637e+03 5.623413251903490817e+01
6.074213472031596211e+03 1.000000000000000000e+02
6.745038340456446349e+03 1.778279410038922776e+02
7.616922380091573359e+03 3.162277660168379612e+02
