# Temperature (K), Pressure (bars)
1.070527367638765554e+03 1.000000000000000082e-05
1.151411619244534450e+03 1.778279410038922901e-05
1.232295882493528779e+03 3.162277660168379530e-05
1.326666403477501262e+03 5.623413251903490700e-05
1.463459212621489087e+03 1.000000000000000048e-04
1.599220600164752113e+03 1.778279410038922698e-04
1.692848206484710090e+03 3.162277660168379394e-04
1.762745407627365694e+03 5.623413251903490971e-04
1.820897756977472227e+03 1.000000000000000021e-03
1.867282384325950034e+03 1.778279410038922752e-03
1.906887766848683896e+03 3.162277660168379394e-03
1.942947335762892862e+03 5.623413251903490971e-03
1.977872266192523512e+03 1.000000000000000021e-02
2.014506504145018880e+03 1.778279410038922925e-02
2.056159048842262564e+03 3.162277660168379134e-02
2.105543575447356943e+03 5.623413251903491145e-02
2.168127195486425080e+03 1.000000000000000056e-01
2.243675340946269444e+03 1.778279410038922925e-01
2.353499093365514909e+03 3.162277660168379412e-01
2.528015419708106947e+03 5.623413251903490728e-01
2.736318210190462196e+03 1.000000000000000000e+00
2.945005922952400397e+03 1.778279410038922759e+00
3.157562680135844857e+03 3.162277660168379523e+00
3.377742995092551155e+03 5.623413251903491172e+00
3.609317679504767966e+03 1.000000000000000000e+01
3.857150890156618516e+03 1.778279410038922848e+01
4.128582712029426148e+03 3.162277660168379256e+01
4.429570051316448371e+03 5.623413251903490817e+01
4.767604873936926197e+03 1.000000000000000000e+02
5.146432269541593087e+03 1.778279410038922776e+02
5.588542186519151073e+03 3.162277660168379612e+02
