# Temperature (K), Pressure (bars)
1.044713139166683504e+03 1.000000000000000021e-03
1.086558476033328589e+03 1.778279410038922752e-03
1.128403813452237046e+03 3.162277660168379394e-03
1.166544388086622348e+03 5.623413251903490971e-03
1.199314556299670357e+03 1.000000000000000021e-02
1.225847903311681648e+03 1.778279410038922925e-02
1.248867362966958353e+03 3.162277660168379134e-02
1.274040844270876732e+03 5.623413251903491145e-02
1.305185278007666966e+03 1.000000000000000056e-01
1.345097169601648147e+03 1.778279410038922925e-01
1.400916470715058722e+03 3.162277660168379412e-01
1.474367767359362688e+03 5.623413251903490728e-01
1.567646141518924878e+03 1.000000000000000000e+00
1.692192951622593910e+03 1.778279410038922759e+00
1.856914531657259431e+03 3.162277660168379523e+00
2.088511297492668746e+03 5.623413251903491172e+00
2.387156180536068860e+03 1.000000000000000000e+01
2.699567688715274016e+03 1.778279410038922848e+01
3.005892902735922235e+03 3.162277660168379256e+01
3.313168536934450458e+03 5.623413251903490817e+01
3.628110641568545361e+03 1.000000000000000000e+02
3.956174160089614361e+03 1.778279410038922776e+02
4.311311135461592130e+03 3.162277660168379612e+02
