# Temperature (K), Pressure (bars)
1.587198169386493873e+03 5.623413251903491208e-06
1.609110254629687461e+03 1.000000000000000082e-05
1.631022342787606703e+03 1.778279410038922901e-05
1.655995811047849202e+03 3.162277660168379530e-05
1.689347178186801102e+03 5.623413251903490700e-05
1.753713346609671817e+03 1.000000000000000048e-04
1.817568200693557628e+03 1.778279410038922698e-04
1.859892091719856353e+03 3.162277660168379394e-04
1.900994657120793136e+03 5.623413251903490971e-04
1.941650463871226520e+03 1.000000000000000021e-03
1.978459452882882715e+03 1.778279410038922752e-03
2.013899719793173062e+03 3.162277660168379394e-03
2.047736913012219702e+03 5.623413251903490971e-03
2.080218732682787959e+03 1.000000000000000021e-02
2.114874424334118430e+03 1.778279410038922925e-02
2.155717093087288504e+03 3.162277660168379134e-02
2.208279223399277726e+03 5.623413251903491145e-02
2.278547485814878655e+03 1.000000000000000056e-01
2.399346598266629371e+03 1.778279410038922925e-01
2.586108524947710976e+03 3.162277660168379412e-01
2.786392091916109621e+03 5.623413251903490728e-01
2.977166393449051156e+03 1.000000000000000000e+00
3.174575237119883695e+03 1.778279410038922759e+00
3.381488977670563600e+03 3.162277660168379523e+00
3.600187867931019355e+03 5.623413251903491172e+00
3.834746587656517931e+03 1.000000000000000000e+01
4.090547681314799775e+03 1.778279410038922848e+01
4.375371906970545751e+03 3.162277660168379256e+01
4.696039479736997237e+03 5.623413251903490817e+01
5.061730864647540329e+03 1.000000000000000000e+02
5.476772600051202971e+03 1.778279410038922776e+02
5.970885910623374002e+03 3.162277660168379612e+02
