# Temperature (K), Pressure (bars)
1.704676849758921435e+03 9.999999999999999547e-07
1.764598991953455425e+03 1.778279410038922901e-06
1.824521134151987326e+03 3.162277660168379191e-06
1.885198579679572049e+03 5.623413251903491208e-06
1.948321230390541814e+03 1.000000000000000082e-05
2.014530781378032771e+03 1.778279410038922901e-05
2.083462317740499202e+03 3.162277660168379530e-05
2.155112864632780656e+03 5.623413251903490700e-05
2.230147762309584778e+03 1.000000000000000048e-04
2.309790059022785499e+03 1.778279410038922698e-04
2.395191925942926900e+03 3.162277660168379394e-04
2.487583939677720082e+03 5.623413251903490971e-04
2.588585192938048749e+03 1.000000000000000021e-03
2.699519418225347181e+03 1.778279410038922752e-03
2.821393893292093708e+03 3.162277660168379394e-03
2.955647398736182367e+03 5.623413251903490971e-03
3.105097239250003440e+03 1.000000000000000021e-02
3.275259099612118916e+03 1.778279410038922925e-02
3.476662429740856169e+03 3.162277660168379134e-02
3.742784812765302377e+03 5.623413251903491145e-02
4.150127248209239042e+03 1.000000000000000056e-01
4.885466970218100869e+03 1.778279410038922925e-01
5.955153714392301481e+03 3.162277660168379412e-01
7.390063583397772163e+03 5.623413251903490728e-01
8.865537136308506888e+03 1.000000000000000000e+00
1.023289711142126907e+04 1.778279410038922759e+00
1.174171428389903667e+04 3.162277660168379523e+00
1.365696780340221085e+04 5.623413251903491172e+00
1.609060545405692028e+04 1.000000000000000000e+01
1.917437016643904280e+04 1.778279410038922848e+01
2.306593318069447560e+04 3.162277660168379256e+01
2.794674010195606388e+04 5.623413251903490817e+01
3.399963488242695166e+04 1.000000000000000000e+02
4.138499499650506186e+04 1.778279410038922776e+02
5.018789994701346586e+04 3.162277660168379612e+02
