# Temperature (K), Pressure (bars)
1.841664368983820623e+03 9.999999999999999547e-07
1.855672719494855301e+03 1.778279410038922901e-06
1.869681070005893162e+03 3.162277660168379191e-06
1.888355821746432412e+03 5.623413251903491208e-06
1.914163023219250817e+03 1.000000000000000082e-05
1.944934023577886364e+03 1.778279410038922901e-05
1.979450229756226236e+03 3.162277660168379530e-05
2.019166524777454470e+03 5.623413251903490700e-05
2.062582359919842474e+03 1.000000000000000048e-04
2.108156089773750864e+03 1.778279410038922698e-04
2.156711922868060356e+03 3.162277660168379394e-04
2.208997789883306723e+03 5.623413251903490971e-04
2.266371836431540487e+03 1.000000000000000021e-03
2.331465269170544616e+03 1.778279410038922752e-03
2.411297044071867731e+03 3.162277660168379394e-03
2.510424181689505986e+03 5.623413251903490971e-03
2.623013379500208430e+03 1.000000000000000021e-02
2.744912095212158420e+03 1.778279410038922925e-02
2.877457700607521474e+03 3.162277660168379134e-02
3.022150659445683232e+03 5.623413251903491145e-02
3.181444237433135640e+03 1.000000000000000056e-01
3.358860055053098222e+03 1.778279410038922925e-01
3.558567088377166783e+03 3.162277660168379412e-01
3.784963959719798368e+03 5.623413251903490728e-01
4.044388853484404081e+03 1.000000000000000000e+00
4.349477702836678873e+03 1.778279410038922759e+00
4.699257615208100106e+03 3.162277660168379523e+00
5.152073164670239748e+03 5.623413251903491172e+00
5.783656154993849668e+03 1.000000000000000000e+01
6.726527324537673849e+03 1.778279410038922848e+01
8.143877274223394124e+03 3.162277660168379256e+01
9.960808516250754110e+03 5.623413251903490817e+01
1.212110248482701172e+04 1.000000000000000000e+02
1.475563865316207557e+04 1.778279410038922776e+02
1.789861438321615060e+04 3.162277660168379612e+02
