# Temperature (K), Pressure (bars)
9.583736597428959385e+02 1.000000000000000021e-03
1.006071244393024131e+03 1.778279410038922752e-03
1.053768830422801557e+03 3.162277660168379394e-03
1.100241927427996416e+03 5.623413251903490971e-03
1.144482825359440994e+03 1.000000000000000021e-02
1.186583372420763226e+03 1.778279410038922925e-02
1.228216634837504216e+03 3.162277660168379134e-02
1.272244310077316868e+03 5.623413251903491145e-02
1.321693216502867017e+03 1.000000000000000056e-01
1.380860415396341750e+03 1.778279410038922925e-01
1.454703460973901656e+03 3.162277660168379412e-01
1.544318715794498530e+03 5.623413251903490728e-01
1.659696741736508784e+03 1.000000000000000000e+00
1.799467434871158275e+03 1.778279410038922759e+00
1.980384195740078667e+03 3.162277660168379523e+00
2.236974530829013929e+03 5.623413251903491172e+00
2.534004086521380032e+03 1.000000000000000000e+01
2.829997727746271266e+03 1.778279410038922848e+01
3.127341361373018117e+03 3.162277660168379256e+01
3.427712540772448847e+03 5.623413251903490817e+01
3.738642508628365249e+03 1.000000000000000000e+02
4.065661492079362688e+03 1.778279410038922776e+02
4.422776618737253557e+03 3.162277660168379612e+02
