# Temperature (K), Pressure (bars)
1.260589620320902441e+03 1.000000000000000048e-04
1.294012061535340536e+03 1.778279410038922698e-04
1.327434506561281523e+03 3.162277660168379394e-04
1.365268685291085831e+03 5.623413251903490971e-04
1.415754678261355139e+03 1.000000000000000021e-03
1.496243356611219724e+03 1.778279410038922752e-03
1.575969878596880562e+03 3.162277660168379394e-03
1.629745054362525707e+03 5.623413251903490971e-03
1.674379370444812821e+03 1.000000000000000021e-02
1.718350533621458680e+03 1.778279410038922925e-02
1.761819133643520445e+03 3.162277660168379134e-02
1.809070576354206423e+03 5.623413251903491145e-02
1.860459057576261102e+03 1.000000000000000056e-01
1.917576821688672453e+03 1.778279410038922925e-01
1.987157802158482355e+03 3.162277660168379412e-01
2.076476729360303580e+03 5.623413251903490728e-01
2.192741957748973618e+03 1.000000000000000000e+00
2.375350343522133699e+03 1.778279410038922759e+00
2.637293143500844053e+03 3.162277660168379523e+00
2.909286985170740991e+03 5.623413251903491172e+00
3.162210017275171140e+03 1.000000000000000000e+01
3.417653844744765593e+03 1.778279410038922848e+01
3.684870819434422174e+03 3.162277660168379256e+01
3.970560648157415017e+03 5.623413251903490817e+01
4.281710897534550895e+03 1.000000000000000000e+02
4.621497265760811388e+03 1.778279410038922776e+02
5.007514913717624040e+03 3.162277660168379612e+02
