# Temperature (K), Pressure (bars)
1.176887455550142477e+03 9.999999999999999547e-07
1.234461677781660910e+03 1.778279410038922901e-06
1.292035900060316635e+03 3.162277660168379191e-06
1.410720314565247918e+03 5.623413251903491208e-06
1.528770161770439472e+03 1.000000000000000082e-05
1.609176378626053975e+03 1.778279410038922901e-05
1.678466727338213559e+03 3.162277660168379530e-05
1.748106232179190556e+03 5.623413251903490700e-05
1.808304558081147889e+03 1.000000000000000048e-04
1.856254123209474756e+03 1.778279410038922698e-04
1.897878138674589991e+03 3.162277660168379394e-04
1.936116152806263926e+03 5.623413251903490971e-04
1.973002377039664680e+03 1.000000000000000021e-03
2.011056418956665539e+03 1.778279410038922752e-03
2.052044882799051265e+03 3.162277660168379394e-03
2.097250865230358613e+03 5.623413251903490971e-03
2.149836962648142617e+03 1.000000000000000021e-02
2.211574617792309255e+03 1.778279410038922925e-02
2.290524948002745987e+03 3.162277660168379134e-02
2.406852983723979378e+03 5.623413251903491145e-02
2.558478925121826705e+03 1.000000000000000056e-01
2.722143267176145855e+03 1.778279410038922925e-01
2.891209497473473675e+03 3.162277660168379412e-01
3.069342499804229192e+03 5.623413251903490728e-01
3.256717122390462464e+03 1.000000000000000000e+00
3.453978523984585991e+03 1.778279410038922759e+00
3.663915665964136224e+03 3.162277660168379523e+00
3.891022658243688056e+03 5.623413251903491172e+00
4.140748854050911177e+03 1.000000000000000000e+01
4.419457339351936753e+03 1.778279410038922848e+01
4.735207445145386373e+03 3.162277660168379256e+01
5.098967043206426752e+03 5.623413251903490817e+01
5.528551623483271214e+03 1.000000000000000000e+02
6.041183606888683244e+03 1.778279410038922776e+02
6.667245274831349889e+03 3.162277660168379612e+02
