# Temperature (K), Pressure (bars)
1.473608930714758571e+03 9.999999999999999547e-07
1.492143628714616625e+03 1.778279410038922901e-06
1.510678326721918893e+03 3.162277660168379191e-06
1.534853756643463385e+03 5.623413251903491208e-06
1.563380681288486812e+03 1.000000000000000082e-05
1.596485770358577156e+03 1.778279410038922901e-05
1.634562763221327941e+03 3.162277660168379530e-05
1.677298272894018737e+03 5.623413251903490700e-05
1.724616325058931579e+03 1.000000000000000048e-04
1.775045406064560893e+03 1.778279410038922698e-04
1.829624328823616906e+03 3.162277660168379394e-04
1.888569394804618469e+03 5.623413251903490971e-04
1.950352365274785370e+03 1.000000000000000021e-03
2.018058103471900267e+03 1.778279410038922752e-03
2.091322353540056611e+03 3.162277660168379394e-03
2.180283336580736432e+03 5.623413251903490971e-03
2.300910752925835823e+03 1.000000000000000021e-02
2.437579549234659680e+03 1.778279410038922925e-02
2.575822477829621675e+03 3.162277660168379134e-02
2.719791471886881482e+03 5.623413251903491145e-02
2.871449942169647329e+03 1.000000000000000056e-01
3.032957053931719656e+03 1.778279410038922925e-01
3.206240598040386431e+03 3.162277660168379412e-01
3.392293258810747830e+03 5.623413251903490728e-01
3.591962756776906190e+03 1.000000000000000000e+00
3.807907979409849759e+03 1.778279410038922759e+00
4.045156854022945936e+03 3.162277660168379523e+00
4.310635490184411537e+03 5.623413251903491172e+00
4.613523501854662754e+03 1.000000000000000000e+01
4.967157025831665123e+03 1.778279410038922848e+01
5.390857414129505742e+03 3.162277660168379256e+01
5.913642137556767921e+03 5.623413251903490817e+01
6.584065259286411674e+03 1.000000000000000000e+02
7.485730864602065594e+03 1.778279410038922776e+02
8.742635804278732394e+03 3.162277660168379612e+02
