# Temperature (K), Pressure (bars)
2.016384770913248303e+03 9.999999999999999547e-07
2.040066905305002592e+03 1.778279410038922901e-06
2.063749039696756427e+03 3.162277660168379191e-06
2.091615192837573431e+03 5.623413251903491208e-06
2.123165650776850725e+03 1.000000000000000082e-05
2.156152600009490016e+03 1.778279410038922901e-05
2.187972524062383854e+03 3.162277660168379530e-05
2.217460610650120088e+03 5.623413251903490700e-05
2.246135296001002189e+03 1.000000000000000048e-04
2.276815313322455495e+03 1.778279410038922698e-04
2.312074528560890940e+03 3.162277660168379394e-04
2.353514958289587412e+03 5.623413251903490971e-04
2.402523586978811636e+03 1.000000000000000021e-03
2.460784452255255474e+03 1.778279410038922752e-03
2.530496144197062677e+03 3.162277660168379394e-03
2.616313932149801076e+03 5.623413251903490971e-03
2.720390162312535722e+03 1.000000000000000021e-02
2.838428884378532075e+03 1.778279410038922925e-02
2.968919709939332279e+03 3.162277660168379134e-02
3.115457391807288332e+03 5.623413251903491145e-02
3.282808006803440094e+03 1.000000000000000056e-01
3.479237001855889503e+03 1.778279410038922925e-01
3.684686185130271042e+03 3.162277660168379412e-01
3.922697848624196922e+03 5.623413251903490728e-01
4.203912391635471977e+03 1.000000000000000000e+00
4.536461909661773461e+03 1.778279410038922759e+00
4.973113373809515906e+03 3.162277660168379523e+00
5.599684402439259429e+03 5.623413251903491172e+00
6.574406262628506738e+03 1.000000000000000000e+01
8.030805883427718982e+03 1.778279410038922848e+01
9.827165989886469106e+03 3.162277660168379256e+01
1.000000000000000000e+04 5.623413251903490817e+01
1.000000000000000000e+04 1.000000000000000000e+02
1.000000000000000000e+04 1.778279410038922776e+02
1.000000000000000000e+04 3.162277660168379612e+02
