# Temperature (K), Pressure (bars)
9.408669702033085969e+02 5.623413251903490700e-05
9.914010891463162807e+02 1.000000000000000048e-04
1.041935208692783362e+03 1.778279410038922698e-04
1.088167895221777371e+03 3.162277660168379394e-04
1.132826744436216586e+03 5.623413251903490971e-04
1.180096940586121718e+03 1.000000000000000021e-03
1.235331441881374985e+03 1.778279410038922752e-03
1.306904474503345909e+03 3.162277660168379394e-03
1.390794604064968098e+03 5.623413251903490971e-03
1.480091618545422079e+03 1.000000000000000021e-02
1.578890516446196216e+03 1.778279410038922925e-02
1.677190808581606234e+03 3.162277660168379134e-02
1.771993061579227742e+03 5.623413251903491145e-02
1.880642662015421365e+03 1.000000000000000056e-01
2.017701895887620594e+03 1.778279410038922925e-01
2.206735512426260811e+03 3.162277660168379412e-01
2.441854339800629987e+03 5.623413251903490728e-01
2.675544193681691013e+03 1.000000000000000000e+00
2.893959360255653337e+03 1.778279410038922759e+00
3.110813260081394674e+03 3.162277660168379523e+00
3.331845091321591099e+03 5.623413251903491172e+00
3.562509499299269919e+03 1.000000000000000000e+01
3.808592115363269841e+03 1.778279410038922848e+01
4.077939396531045077e+03 3.162277660168379256e+01
4.375707875621372295e+03 5.623413251903490817e+01
4.709161831085409176e+03 1.000000000000000000e+02
5.081617312754120576e+03 1.778279410038922776e+02
5.515284299392370485e+03 3.162277660168379612e+02
