# Temperature (K), Pressure (bars)
1.924462315077029871e+03 9.999999999999999547e-07
1.966246259276192404e+03 1.778279410038922901e-06
2.008030203475868348e+03 3.162277660168379191e-06
2.055389308121236354e+03 5.623413251903491208e-06
2.104349013452324471e+03 1.000000000000000082e-05
2.150562730283232668e+03 1.778279410038922901e-05
2.192406641230413697e+03 3.162277660168379530e-05
2.229140879776518887e+03 5.623413251903490700e-05
2.261749084815804054e+03 1.000000000000000048e-04
2.292199477322749772e+03 1.778279410038922698e-04
2.322452764509920144e+03 3.162277660168379394e-04
2.354590771141235564e+03 5.623413251903490971e-04
2.390612684643137072e+03 1.000000000000000021e-03
2.432900768050411898e+03 1.778279410038922752e-03
2.482287995204490016e+03 3.162277660168379394e-03
2.540862375527040058e+03 5.623413251903490971e-03
2.603758384666100937e+03 1.000000000000000021e-02
2.680481625211457413e+03 1.778279410038922925e-02
2.794432154162766892e+03 3.162277660168379134e-02
2.933464652202841535e+03 5.623413251903491145e-02
3.085531540629284791e+03 1.000000000000000056e-01
3.257686873873306467e+03 1.778279410038922925e-01
3.450326717663267573e+03 3.162277660168379412e-01
3.663172667280595761e+03 5.623413251903490728e-01
3.898599607929108970e+03 1.000000000000000000e+00
4.163592705260750336e+03 1.778279410038922759e+00
4.470550519345362773e+03 3.162277660168379523e+00
4.827508629294179627e+03 5.623413251903491172e+00
5.277674405942488193e+03 1.000000000000000000e+01
5.879328300621874405e+03 1.778279410038922848e+01
6.746011491750595269e+03 3.162277660168379256e+01
8.046591836013622924e+03 5.623413251903490817e+01
9.810603533790743313e+03 1.000000000000000000e+02
1.194718901760646258e+04 1.778279410038922776e+02
1.449316729542620124e+04 3.162277660168379612e+02
