# Temperature (K), Pressure (bars)
9.842714013598192651e+02 3.162277660168379394e-04
1.033195821120094024e+03 5.623413251903490971e-04
1.082120241327919302e+03 1.000000000000000021e-03
1.128216182644113360e+03 1.778279410038922752e-03
1.172741277679444238e+03 3.162277660168379394e-03
1.219845561305488218e+03 5.623413251903490971e-03
1.271766791335095832e+03 1.000000000000000021e-02
1.332737294775844248e+03 1.778279410038922925e-02
1.409384248669310864e+03 3.162277660168379134e-02
1.506291228206749565e+03 5.623413251903491145e-02
1.623087818105516135e+03 1.000000000000000056e-01
1.758723677838020194e+03 1.778279410038922925e-01
1.904606468857549544e+03 3.162277660168379412e-01
2.076236955355153441e+03 5.623413251903490728e-01
2.304103838706696024e+03 1.000000000000000000e+00
2.558324645363810760e+03 1.778279410038922759e+00
2.804168080422511593e+03 3.162277660168379523e+00
3.045033619988081227e+03 5.623413251903491172e+00
3.287025256529405397e+03 1.000000000000000000e+01
3.536641704040936474e+03 1.778279410038922848e+01
3.802079411999923195e+03 3.162277660168379256e+01
4.089258734713158447e+03 5.623413251903490817e+01
4.404929377507679419e+03 1.000000000000000000e+02
4.752375265052757641e+03 1.778279410038922776e+02
5.149669547185771080e+03 3.162277660168379612e+02
