# Temperature (K), Pressure (bars)
2.145104655074794209e+03 9.999999999999999547e-07
2.167632465036643680e+03 1.778279410038922901e-06
2.190160274998493151e+03 3.162277660168379191e-06
2.228130634317546992e+03 5.623413251903491208e-06
2.274965990843201325e+03 1.000000000000000082e-05
2.323831927625895787e+03 1.778279410038922901e-05
2.375251349559084247e+03 3.162277660168379530e-05
2.427666512166196298e+03 5.623413251903490700e-05
2.479437307705335115e+03 1.000000000000000048e-04
2.529674731648403849e+03 1.778279410038922698e-04
2.577541547730712409e+03 3.162277660168379394e-04
2.623486067846219157e+03 5.623413251903490971e-04
2.669138919826980782e+03 1.000000000000000021e-03
2.718885098429740083e+03 1.778279410038922752e-03
2.775504147525109147e+03 3.162277660168379394e-03
2.839528309696085671e+03 5.623413251903490971e-03
2.898841503120878315e+03 1.000000000000000021e-02
2.960406297992820782e+03 1.778279410038922925e-02
3.065856810678352304e+03 3.162277660168379134e-02
3.222650770899390864e+03 5.623413251903491145e-02
3.397488085677246090e+03 1.000000000000000056e-01
3.601036857758834230e+03 1.778279410038922925e-01
3.844125578318685257e+03 3.162277660168379412e-01
4.115355192106080722e+03 5.623413251903490728e-01
4.459239251717956904e+03 1.000000000000000000e+00
4.939088809858148124e+03 1.778279410038922759e+00
5.691210962760560506e+03 3.162277660168379523e+00
6.892672752540458532e+03 5.623413251903491172e+00
8.498228138875836521e+03 1.000000000000000000e+01
1.000000000000000000e+04 1.778279410038922848e+01
1.000000000000000000e+04 3.162277660168379256e+01
1.000000000000000000e+04 5.623413251903490817e+01
1.000000000000000000e+04 1.000000000000000000e+02
1.000000000000000000e+04 1.778279410038922776e+02
1.000000000000000000e+04 3.162277660168379612e+02
