# Temperature (K), Pressure (bars)
2.106676652700671639e+03 3.162277660168379191e-06
2.112948764644068433e+03 5.623413251903491208e-06
2.119221434961078103e+03 1.000000000000000082e-05
2.126288637570376522e+03 1.778279410038922901e-05
2.137878959416192629e+03 3.162277660168379530e-05
2.158754704363926976e+03 5.623413251903490700e-05
2.189956015707281495e+03 1.000000000000000048e-04
2.229748848919864940e+03 1.778279410038922698e-04
2.277592476228107444e+03 3.162277660168379394e-04
2.332674307810782011e+03 5.623413251903490971e-04
2.391063467087515619e+03 1.000000000000000021e-03
2.448886526196806699e+03 1.778279410038922752e-03
2.503149264922247767e+03 3.162277660168379394e-03
2.552150310230036666e+03 5.623413251903490971e-03
2.594993597301873706e+03 1.000000000000000021e-02
2.638102412199451464e+03 1.778279410038922925e-02
2.683990283800372708e+03 3.162277660168379134e-02
2.753670945053564537e+03 5.623413251903491145e-02
2.876630989171797410e+03 1.000000000000000056e-01
3.026588463560991840e+03 1.778279410038922925e-01
3.182210011379775096e+03 3.162277660168379412e-01
3.354176572321966432e+03 5.623413251903490728e-01
3.545751851409730989e+03 1.000000000000000000e+00
3.758581428547803625e+03 1.778279410038922759e+00
3.994417653946210521e+03 3.162277660168379523e+00
4.257325939818617371e+03 5.623413251903491172e+00
4.554871402984921588e+03 1.000000000000000000e+01
4.898549647983607429e+03 1.778279410038922848e+01
5.304658396548392375e+03 3.162277660168379256e+01
5.799981895065205208e+03 5.623413251903490817e+01
6.425422059553705367e+03 1.000000000000000000e+02
7.249885016362737588e+03 1.778279410038922776e+02
8.381879440183289262e+03 3.162277660168379612e+02
