# Temperature (K), Pressure (bars)
8.481741723694908615e+02 1.000000000000000048e-04
9.000775362226501102e+02 1.778279410038922698e-04
9.519809012756129505e+02 3.162277660168379394e-04
1.002780990414359735e+03 5.623413251903490971e-04
1.053421060149777986e+03 1.000000000000000021e-03
1.105963592303568021e+03 1.778279410038922752e-03
1.162835188083450475e+03 3.162277660168379394e-03
1.226253739126807204e+03 5.623413251903490971e-03
1.301163051334478041e+03 1.000000000000000021e-02
1.390427407688144058e+03 1.778279410038922925e-02
1.511208310593743136e+03 3.162277660168379134e-02
1.686421182978429670e+03 5.623413251903491145e-02
1.908192456653500585e+03 1.000000000000000056e-01
2.153631753684229807e+03 1.778279410038922925e-01
2.394629709952010671e+03 3.162277660168379412e-01
2.616504420082351771e+03 5.623413251903490728e-01
2.826058260300082566e+03 1.000000000000000000e+00
3.030850516373522169e+03 1.778279410038922759e+00
3.237616635951143508e+03 3.162277660168379523e+00
3.452291019239133675e+03 5.623413251903491172e+00
3.680234384805017726e+03 1.000000000000000000e+01
3.926743738827484322e+03 1.778279410038922848e+01
4.199778570561834385e+03 3.162277660168379256e+01
4.503959579579843194e+03 5.623413251903490817e+01
4.846934054120250948e+03 1.000000000000000000e+02
5.232194973570021830e+03 1.778279410038922776e+02
5.684024507159300811e+03 3.162277660168379612e+02
