# Temperature (K), Pressure (bars)
1.492331990037741889e+03 1.778279410038922901e-05
1.514559433391653783e+03 3.162277660168379530e-05
1.536786878370183786e+03 5.623413251903490700e-05
1.561530137577726236e+03 1.000000000000000048e-04
1.591683797729950356e+03 1.778279410038922698e-04
1.628284372763460851e+03 3.162277660168379394e-04
1.670996966286502357e+03 5.623413251903490971e-04
1.719664301391702793e+03 1.000000000000000021e-03
1.773048042214570842e+03 1.778279410038922752e-03
1.830904430897728389e+03 3.162277660168379394e-03
1.892771195279668518e+03 5.623413251903490971e-03
1.958824733584704745e+03 1.000000000000000021e-02
2.031335441034244695e+03 1.778279410038922925e-02
2.113635009295244345e+03 3.162277660168379134e-02
2.210023402372700275e+03 5.623413251903491145e-02
2.342893261876678025e+03 1.000000000000000056e-01
2.520368178952059679e+03 1.778279410038922925e-01
2.705799224847522964e+03 3.162277660168379412e-01
2.884476328592310438e+03 5.623413251903490728e-01
3.068713198001090859e+03 1.000000000000000000e+00
3.262389577469419237e+03 1.778279410038922759e+00
3.467739885785697879e+03 3.162277660168379523e+00
3.687228569260822951e+03 5.623413251903491172e+00
3.924776807316290160e+03 1.000000000000000000e+01
4.185656526941904303e+03 1.778279410038922848e+01
4.476267754335529389e+03 3.162277660168379256e+01
4.804953454677001901e+03 5.623413251903490817e+01
5.186775817558747804e+03 1.000000000000000000e+02
5.631970762050044868e+03 1.778279410038922776e+02
6.160127888935292503e+03 3.162277660168379612e+02
