# Temperature (K), Pressure (bars)
1.018197086723276129e+03 3.162277660168379394e-04
1.056154906405638712e+03 5.623413251903490971e-04
1.094112727149939246e+03 1.000000000000000021e-03
1.129639445874294324e+03 1.778279410038922752e-03
1.160881237887982934e+03 3.162277660168379394e-03
1.189154054796804530e+03 5.623413251903490971e-03
1.216596868130360008e+03 1.000000000000000021e-02
1.243752680473790178e+03 1.778279410038922925e-02
1.272189539351332314e+03 3.162277660168379134e-02
1.303778083281632007e+03 5.623413251903491145e-02
1.345324766518241404e+03 1.000000000000000056e-01
1.404983876321872231e+03 1.778279410038922925e-01
1.481746871370746703e+03 3.162277660168379412e-01
1.579724957191781641e+03 5.623413251903490728e-01
1.703587087639015181e+03 1.000000000000000000e+00
1.867833873689593929e+03 1.778279410038922759e+00
2.105736107110418288e+03 3.162277660168379523e+00
2.400455588856857503e+03 5.623413251903491172e+00
2.698200848472825783e+03 1.000000000000000000e+01
2.985013916741291268e+03 1.778279410038922848e+01
3.272407295252901349e+03 3.162277660168379256e+01
3.566244418511458662e+03 5.623413251903490817e+01
3.874519807612709883e+03 1.000000000000000000e+02
4.202098112949627648e+03 1.778279410038922776e+02
4.563774175466289307e+03 3.162277660168379612e+02
