# Temperature (K), Pressure (bars)
2.189990047409156887e+03 9.999999999999999547e-07
2.197568689781472131e+03 1.778279410038922901e-06
2.205147332153787829e+03 3.162277660168379191e-06
2.233926895113082537e+03 5.623413251903491208e-06
2.268184645071320574e+03 1.000000000000000082e-05
2.304102881018197877e+03 1.778279410038922901e-05
2.347414262741774564e+03 3.162277660168379530e-05
2.397292932999592722e+03 5.623413251903490700e-05
2.453240363782337681e+03 1.000000000000000048e-04
2.512664541676982026e+03 1.778279410038922698e-04
2.573575305211691102e+03 3.162277660168379394e-04
2.635648264982436558e+03 5.623413251903490971e-04
2.697226100891221449e+03 1.000000000000000021e-03
2.755594722890186404e+03 1.778279410038922752e-03
2.809803604747143709e+03 3.162277660168379394e-03
2.862526177154496509e+03 5.623413251903490971e-03
2.917702600050885394e+03 1.000000000000000021e-02
2.975476845064019926e+03 1.778279410038922925e-02
3.030751456014878841e+03 3.162277660168379134e-02
3.113854470655634486e+03 5.623413251903491145e-02
3.260551715589731430e+03 1.000000000000000056e-01
3.448732415159666743e+03 1.778279410038922925e-01
3.645509450318824747e+03 3.162277660168379412e-01
3.874032830625120368e+03 5.623413251903490728e-01
4.143244107100813380e+03 1.000000000000000000e+00
4.453886238594923270e+03 1.778279410038922759e+00
4.848698487507134814e+03 3.162277660168379523e+00
5.390677651173039521e+03 5.623413251903491172e+00
6.212603349316886124e+03 1.000000000000000000e+01
7.487813969768463721e+03 1.778279410038922848e+01
9.189976491895949948e+03 3.162277660168379256e+01
1.000000000000000000e+04 5.623413251903490817e+01
1.000000000000000000e+04 1.000000000000000000e+02
1.000000000000000000e+04 1.778279410038922776e+02
1.000000000000000000e+04 3.162277660168379612e+02
