# Temperature (K), Pressure (bars)
1.268391524631132143e+03 3.162277660168379394e-04
1.310519435451616573e+03 5.623413251903490971e-04
1.352647349198018219e+03 1.000000000000000021e-03
1.398310286671695849e+03 1.778279410038922752e-03
1.446080956327778722e+03 3.162277660168379394e-03
1.508255313133366826e+03 5.623413251903490971e-03
1.590817950637263039e+03 1.000000000000000021e-02
1.663843879265426040e+03 1.778279410038922925e-02
1.714458823718182884e+03 3.162277660168379134e-02
1.759578648914518681e+03 5.623413251903491145e-02
1.809397716071261357e+03 1.000000000000000056e-01
1.864920656450031856e+03 1.778279410038922925e-01
1.929222938534872583e+03 3.162277660168379412e-01
2.008036382442435524e+03 5.623413251903490728e-01
2.108201897009071672e+03 1.000000000000000000e+00
2.236502133024216619e+03 1.778279410038922759e+00
2.430667056440388023e+03 3.162277660168379523e+00
2.704295773287967677e+03 5.623413251903491172e+00
2.989059076931246636e+03 1.000000000000000000e+01
3.256021882321839257e+03 1.778279410038922848e+01
3.528431334861893447e+03 3.162277660168379256e+01
3.814867400410239497e+03 5.623413251903490817e+01
4.122688216749842468e+03 1.000000000000000000e+02
4.455690747642704082e+03 1.778279410038922776e+02
4.829989282525573799e+03 3.162277660168379612e+02
