# Temperature (K), Pressure (bars)
8.461974143384635454e+02 1.778279410038922901e-05
8.943273152967788064e+02 3.162277660168379530e-05
9.424572154528480041e+02 5.623413251903490700e-05
9.871825645132910267e+02 1.000000000000000048e-04
1.034269111809221386e+03 1.778279410038922698e-04
1.087201926852799716e+03 3.162277660168379394e-04
1.142252714954097883e+03 5.623413251903490971e-04
1.194040643656619977e+03 1.000000000000000021e-03
1.238020087266775136e+03 1.778279410038922752e-03
1.275361103986750322e+03 3.162277660168379394e-03
1.311340924666528508e+03 5.623413251903490971e-03
1.355844854768813320e+03 1.000000000000000021e-02
1.404917287278186222e+03 1.778279410038922925e-02
1.470407359300323378e+03 3.162277660168379134e-02
1.621283273917692668e+03 5.623413251903491145e-02
1.864443218735411165e+03 1.000000000000000056e-01
2.123523342968368524e+03 1.778279410038922925e-01
2.363515652818507988e+03 3.162277660168379412e-01
2.588288566379585518e+03 5.623413251903490728e-01
2.801945837655100149e+03 1.000000000000000000e+00
3.010441069892406176e+03 1.778279410038922759e+00
3.219880055180532509e+03 3.162277660168379523e+00
3.436349846655361489e+03 5.623413251903491172e+00
3.665524150214764632e+03 1.000000000000000000e+01
3.912902883989527254e+03 1.778279410038922848e+01
4.186444928171172251e+03 3.162277660168379256e+01
4.491066811603337555e+03 5.623413251903490817e+01
4.834316576567225638e+03 1.000000000000000000e+02
5.219642363185645081e+03 1.778279410038922776e+02
5.670798852867064852e+03 3.162277660168379612e+02
