# Temperature (K), Pressure (bars)
1.203586900521489042e+03 9.999999999999999547e-07
1.316502430783943737e+03 1.778279410038922901e-06
1.429417961065231339e+03 3.162277660168379191e-06
1.529161042014136001e+03 5.623413251903491208e-06
1.601941088857906834e+03 1.000000000000000082e-05
1.666867022127650898e+03 1.778279410038922901e-05
1.741711496901741157e+03 3.162277660168379530e-05
1.813298642318597331e+03 5.623413251903490700e-05
1.872029913413390432e+03 1.000000000000000048e-04
1.921485447886253496e+03 1.778279410038922698e-04
1.963804740199462458e+03 3.162277660168379394e-04
2.001532991337976000e+03 5.623413251903490971e-04
2.037728092689701271e+03 1.000000000000000021e-03
2.073969057798198264e+03 1.778279410038922752e-03
2.112074410294087102e+03 3.162277660168379394e-03
2.154517178881978907e+03 5.623413251903490971e-03
2.202802429324445256e+03 1.000000000000000021e-02
2.261492813509966709e+03 1.778279410038922925e-02
2.330959876816050837e+03 3.162277660168379134e-02
2.425084130993745930e+03 5.623413251903491145e-02
2.563550559804833938e+03 1.000000000000000056e-01
2.724448700566408661e+03 1.778279410038922925e-01
2.888858599268801299e+03 3.162277660168379412e-01
3.062708437890497407e+03 5.623413251903490728e-01
3.247773437958489467e+03 1.000000000000000000e+00
3.444733524662186028e+03 1.778279410038922759e+00
3.655154179301549448e+03 3.162277660168379523e+00
3.882618911793248117e+03 5.623413251903491172e+00
4.132275374076385560e+03 1.000000000000000000e+01
4.410407771067350950e+03 1.778279410038922848e+01
4.724845407197815803e+03 3.162277660168379256e+01
5.086173446271313878e+03 5.623413251903490817e+01
5.512849760045981384e+03 1.000000000000000000e+02
6.020660393893004766e+03 1.778279410038922776e+02
6.638477955409744027e+03 3.162277660168379612e+02
