# Temperature (K), Pressure (bars)
1.471472495584036778e+03 3.162277660168379530e-05
1.503655684198945437e+03 5.623413251903490700e-05
1.535838877382005649e+03 1.000000000000000048e-04
1.575246863923622868e+03 1.778279410038922698e-04
1.623531917544096586e+03 3.162277660168379394e-04
1.674162372081806780e+03 5.623413251903490971e-04
1.729239199734696513e+03 1.000000000000000021e-03
1.791599790319961130e+03 1.778279410038922752e-03
1.846953907723130214e+03 3.162277660168379394e-03
1.888101845096297666e+03 5.623413251903490971e-03
1.921911949098810510e+03 1.000000000000000021e-02
1.951427947344260701e+03 1.778279410038922925e-02
1.978256536156268794e+03 3.162277660168379134e-02
2.006315174613439694e+03 5.623413251903491145e-02
2.041454347674099836e+03 1.000000000000000056e-01
2.087379604240263689e+03 1.778279410038922925e-01
2.150273103047828954e+03 3.162277660168379412e-01
2.227377627126435982e+03 5.623413251903490728e-01
2.345233681165581402e+03 1.000000000000000000e+00
2.546108997959158842e+03 1.778279410038922759e+00
2.789587317023730066e+03 3.162277660168379523e+00
3.030533029211035682e+03 5.623413251903491172e+00
3.273718686012492981e+03 1.000000000000000000e+01
3.524755057704490810e+03 1.778279410038922848e+01
3.790581993966991377e+03 3.162277660168379256e+01
4.077630178950863865e+03 5.623413251903490817e+01
4.392783977525204136e+03 1.000000000000000000e+02
4.739166373829343684e+03 1.778279410038922776e+02
5.135207705270360748e+03 3.162277660168379612e+02
