# Temperature (K), Pressure (bars)
2.272485627796589597e+03 9.999999999999999547e-07
2.291603450558071017e+03 1.778279410038922901e-06
2.310721273319551528e+03 3.162277660168379191e-06
2.343505295136719269e+03 5.623413251903491208e-06
2.384885350999619732e+03 1.000000000000000082e-05
2.429032100235133385e+03 1.778279410038922901e-05
2.475656155663949448e+03 3.162277660168379530e-05
2.522929473384358971e+03 5.623413251903490700e-05
2.568435120557295249e+03 1.000000000000000048e-04
2.610442772090489598e+03 1.778279410038922698e-04
2.647897131604847345e+03 3.162277660168379394e-04
2.681681337051136779e+03 5.623413251903490971e-04
2.716243124840917972e+03 1.000000000000000021e-03
2.758548792287921060e+03 1.778279410038922752e-03
2.813472553488694302e+03 3.162277660168379394e-03
2.881286886001435960e+03 5.623413251903490971e-03
2.955991839004934263e+03 1.000000000000000021e-02
3.035435311390538573e+03 1.778279410038922925e-02
3.141179739131823226e+03 3.162277660168379134e-02
3.295061774729121225e+03 5.623413251903491145e-02
3.479791512995734138e+03 1.000000000000000056e-01
3.702455986702269911e+03 1.778279410038922925e-01
3.956607063463610757e+03 3.162277660168379412e-01
4.274573339129194210e+03 5.623413251903490728e-01
4.719987636219821070e+03 1.000000000000000000e+00
5.433788799309341812e+03 1.778279410038922759e+00
6.598259097009489778e+03 3.162277660168379523e+00
8.156455750714603710e+03 5.623413251903491172e+00
9.869664842284464612e+03 1.000000000000000000e+01
1.000000000000000000e+04 1.778279410038922848e+01
1.000000000000000000e+04 3.162277660168379256e+01
1.000000000000000000e+04 5.623413251903490817e+01
1.000000000000000000e+04 1.000000000000000000e+02
1.000000000000000000e+04 1.778279410038922776e+02
1.000000000000000000e+04 3.162277660168379612e+02
