# Temperature (K), Pressure (bars)
2.163573991550515530e+03 9.999999999999999547e-07
2.169152662000300552e+03 1.778279410038922901e-06
2.174731332450086484e+03 3.162277660168379191e-06
2.190141103447899241e+03 5.623413251903491208e-06
2.209970826120459151e+03 1.000000000000000082e-05
2.230228927326553276e+03 1.778279410038922901e-05
2.251736858130656856e+03 3.162277660168379530e-05
2.275929352950884095e+03 5.623413251903490700e-05
2.305647333151603561e+03 1.000000000000000048e-04
2.342328231120315650e+03 1.778279410038922698e-04
2.385137880308224339e+03 3.162277660168379394e-04
2.432333503303965699e+03 5.623413251903490971e-04
2.481258444116521787e+03 1.000000000000000021e-03
2.528033181501810759e+03 1.778279410038922752e-03
2.569952024378822443e+03 3.162277660168379394e-03
2.605978431125824955e+03 5.623413251903490971e-03
2.636740649924127865e+03 1.000000000000000021e-02
2.666448314239302817e+03 1.778279410038922925e-02
2.702736939651687862e+03 3.162277660168379134e-02
2.753228809664421533e+03 5.623413251903491145e-02
2.841640226834613713e+03 1.000000000000000056e-01
2.980697205015839245e+03 1.778279410038922925e-01
3.141165531998743063e+03 3.162277660168379412e-01
3.309860421814721121e+03 5.623413251903490728e-01
3.496646868598752917e+03 1.000000000000000000e+00
3.703944273662819796e+03 1.778279410038922759e+00
3.933425846691367951e+03 3.162277660168379523e+00
4.188340243144038141e+03 5.623413251903491172e+00
4.474955603483533196e+03 1.000000000000000000e+01
4.803023366417048237e+03 1.778279410038922848e+01
5.186775472124308180e+03 3.162277660168379256e+01
5.647534680629607465e+03 5.623413251903490817e+01
6.216871727441085568e+03 1.000000000000000000e+02
6.946360524964922661e+03 1.778279410038922776e+02
7.920452301712682129e+03 3.162277660168379612e+02
