# Temperature (K), Pressure (bars)
7.615525966073272457e+02 3.162277660168379394e-04
8.036419547083984298e+02 5.623413251903490971e-04
8.457313138047950360e+02 1.000000000000000021e-03
8.876019650294857684e+02 1.778279410038922752e-03
9.298494959097052970e+02 3.162277660168379394e-03
9.734738747075858782e+02 5.623413251903490971e-03
1.020267865350308853e+03 1.000000000000000021e-02
1.074134091729681586e+03 1.778279410038922925e-02
1.139782746429269991e+03 3.162277660168379134e-02
1.225528433476875762e+03 5.623413251903491145e-02
1.337011184566864358e+03 1.000000000000000056e-01
1.502460978185423983e+03 1.778279410038922925e-01
1.737470867039964332e+03 3.162277660168379412e-01
1.999095535584208847e+03 5.623413251903490728e-01
2.265045832355604034e+03 1.000000000000000000e+00
2.529295082113374519e+03 1.778279410038922759e+00
2.780005962930843452e+03 3.162277660168379523e+00
3.022311971461583198e+03 5.623413251903491172e+00
3.263947402350800530e+03 1.000000000000000000e+01
3.512687031241547174e+03 1.778279410038922848e+01
3.777661479358286670e+03 3.162277660168379256e+01
4.063764559223638116e+03 5.623413251903490817e+01
4.377587515227772201e+03 1.000000000000000000e+02
4.722320873992361157e+03 1.778279410038922776e+02
5.115716515665817496e+03 3.162277660168379612e+02
