# Temperature (K), Pressure (bars)
8.705073655180557353e+02 5.623413251903490971e-04
9.180289863810046427e+02 1.000000000000000021e-03
9.655506087871970067e+02 1.778279410038922752e-03
1.013208325153372471e+03 3.162277660168379394e-03
1.060653306961832641e+03 5.623413251903490971e-03
1.108452201392146435e+03 1.000000000000000021e-02
1.157528452974198672e+03 1.778279410038922925e-02
1.209803095408011131e+03 3.162277660168379134e-02
1.268912424191314130e+03 5.623413251903491145e-02
1.340229429560598874e+03 1.000000000000000056e-01
1.430996882965973555e+03 1.778279410038922925e-01
1.557132349316532100e+03 3.162277660168379412e-01
1.735463749823719354e+03 5.623413251903490728e-01
1.971553668999419642e+03 1.000000000000000000e+00
2.247977817256745311e+03 1.778279410038922759e+00
2.527041794846614721e+03 3.162277660168379523e+00
2.793269494469267556e+03 5.623413251903491172e+00
3.053482956289281901e+03 1.000000000000000000e+01
3.313939823043033357e+03 1.778279410038922848e+01
3.583687143493601525e+03 3.162277660168379256e+01
3.869227732209043097e+03 5.623413251903490817e+01
4.177699669109916613e+03 1.000000000000000000e+02
4.512831776408357655e+03 1.778279410038922776e+02
4.890779836997526218e+03 3.162277660168379612e+02
