# Temperature (K), Pressure (bars)
9.182945855262935311e+02 1.000000000000000021e-03
9.698211702343631941e+02 1.778279410038922752e-03
1.021347756748234360e+03 3.162277660168379394e-03
1.071130039465452228e+03 5.623413251903490971e-03
1.120414350735818971e+03 1.000000000000000021e-02
1.170304638518489355e+03 1.778279410038922925e-02
1.222310663690734145e+03 3.162277660168379134e-02
1.278852514842287746e+03 5.623413251903491145e-02
1.345898960900758311e+03 1.000000000000000056e-01
1.433860328450748966e+03 1.778279410038922925e-01
1.552354898470567377e+03 3.162277660168379412e-01
1.705159168516806631e+03 5.623413251903490728e-01
1.892042317905857544e+03 1.000000000000000000e+00
2.128096833920552854e+03 1.778279410038922759e+00
2.409732337920586360e+03 3.162277660168379523e+00
2.693536127711205609e+03 5.623413251903491172e+00
2.962826560895646253e+03 1.000000000000000000e+01
3.229479369661456531e+03 1.778279410038922848e+01
3.502550022939216433e+03 3.162277660168379256e+01
3.789029508726120639e+03 5.623413251903490817e+01
4.096337188078386134e+03 1.000000000000000000e+02
4.428559181230882132e+03 1.778279410038922776e+02
4.801227749867866805e+03 3.162277660168379612e+02
