# Temperature (K), Pressure (bars)
8.154261883081595670e+02 1.000000000000000082e-05
8.692327853377728388e+02 1.778279410038922901e-05
9.230393817310584836e+02 3.162277660168379530e-05
9.699752872847323033e+02 5.623413251903490700e-05
1.016632689358283187e+03 1.000000000000000048e-04
1.067145108233726432e+03 1.778279410038922698e-04
1.115729712756206936e+03 3.162277660168379394e-04
1.157986038563771672e+03 5.623413251903490971e-04
1.195018177079845827e+03 1.000000000000000021e-03
1.229161733471804610e+03 1.778279410038922752e-03
1.262576627419674878e+03 3.162277660168379394e-03
1.297813197562119058e+03 5.623413251903490971e-03
1.338610849520958254e+03 1.000000000000000021e-02
1.378408498527586971e+03 1.778279410038922925e-02
1.426463891281438919e+03 3.162277660168379134e-02
1.535674292477857762e+03 5.623413251903491145e-02
1.736008263691629736e+03 1.000000000000000056e-01
1.990966572494904995e+03 1.778279410038922925e-01
2.247833303270312626e+03 3.162277660168379412e-01
2.487184820021304404e+03 5.623413251903490728e-01
2.712211573460077034e+03 1.000000000000000000e+00
2.927948756105802659e+03 1.778279410038922759e+00
3.141351252891349759e+03 3.162277660168379523e+00
3.359396593530005703e+03 5.623413251903491172e+00
3.588265023351515993e+03 1.000000000000000000e+01
3.833677163730420943e+03 1.778279410038922848e+01
4.103685616066350121e+03 3.162277660168379256e+01
4.402825192447087829e+03 5.623413251903490817e+01
4.738293331783778740e+03 1.000000000000000000e+02
5.113404154908615055e+03 1.778279410038922776e+02
5.550592666001378348e+03 3.162277660168379612e+02
