# Temperature (K), Pressure (bars)
9.950780680745957625e+02 3.162277660168379394e-04
1.054708327272090855e+03 5.623413251903490971e-04
1.114338587956251558e+03 1.000000000000000021e-03
1.171533512359666474e+03 1.778279410038922752e-03
1.228517088900644694e+03 3.162277660168379394e-03
1.286836869639349288e+03 5.623413251903490971e-03
1.349660220509266765e+03 1.000000000000000021e-02
1.419989289556383255e+03 1.778279410038922925e-02
1.508801367948335155e+03 3.162277660168379134e-02
1.631885495533758331e+03 5.623413251903491145e-02
1.810750875869237007e+03 1.000000000000000056e-01
2.049882023842319086e+03 1.778279410038922925e-01
2.300317096412102273e+03 3.162277660168379412e-01
2.530235482395685267e+03 5.623413251903490728e-01
2.747651347201501267e+03 1.000000000000000000e+00
2.959282816618769630e+03 1.778279410038922759e+00
3.171303502042832406e+03 3.162277660168379523e+00
3.389290314367481187e+03 5.623413251903491172e+00
3.618694152426328401e+03 1.000000000000000000e+01
3.865043930070817623e+03 1.778279410038922848e+01
4.136256255883624362e+03 3.162277660168379256e+01
4.437305984186946262e+03 5.623413251903490817e+01
4.775600770417899184e+03 1.000000000000000000e+02
5.154935520778363752e+03 1.778279410038922776e+02
5.597821653615525975e+03 3.162277660168379612e+02
