# Temperature (K), Pressure (bars)
1.449760556636937281e+03 9.999999999999999547e-07
1.459869790418598768e+03 1.778279410038922901e-06
1.469979024200658387e+03 3.162277660168379191e-06
1.485282875795771133e+03 5.623413251903491208e-06
1.509047455781445933e+03 1.000000000000000082e-05
1.540300956491695388e+03 1.778279410038922901e-05
1.581260015481998835e+03 3.162277660168379530e-05
1.635240866445201391e+03 5.623413251903490700e-05
1.695624804800107313e+03 1.000000000000000048e-04
1.758187404794713530e+03 1.778279410038922698e-04
1.825937362865616706e+03 3.162277660168379394e-04
1.898957734635059523e+03 5.623413251903490971e-04
1.976113637971567641e+03 1.000000000000000021e-03
2.062075249356687891e+03 1.778279410038922752e-03
2.167091260895418600e+03 3.162277660168379394e-03
2.290202858521442067e+03 5.623413251903490971e-03
2.420430858597605038e+03 1.000000000000000021e-02
2.554207618076850849e+03 1.778279410038922925e-02
2.693543627812800423e+03 3.162277660168379134e-02
2.840232445866587568e+03 5.623413251903491145e-02
2.996044418016333111e+03 1.000000000000000056e-01
3.163016104141654523e+03 1.778279410038922925e-01
3.343391704396473870e+03 3.162277660168379412e-01
3.539221641595382607e+03 5.623413251903490728e-01
3.752894305378093577e+03 1.000000000000000000e+00
3.988500500002795889e+03 1.778279410038922759e+00
4.253077345840729322e+03 3.162277660168379523e+00
4.557178150082334469e+03 5.623413251903491172e+00
4.912533924935108189e+03 1.000000000000000000e+01
5.348193639770248410e+03 1.778279410038922848e+01
5.905059705177118303e+03 3.162277660168379256e+01
6.652971722848215904e+03 5.623413251903490817e+01
7.704820484262658283e+03 1.000000000000000000e+02
9.216258394960574151e+03 1.778279410038922776e+02
1.114644466163286415e+04 3.162277660168379612e+02
