# Temperature (K), Pressure (bars)
1.066564844031700886e+03 3.162277660168379530e-05
1.108106172015765196e+03 5.623413251903490700e-05
1.149647502250267280e+03 1.000000000000000048e-04
1.194317534488516912e+03 1.778279410038922698e-04
1.243328074975619757e+03 3.162277660168379394e-04
1.296474208091442051e+03 5.623413251903490971e-04
1.354918745913385692e+03 1.000000000000000021e-03
1.421071954131080474e+03 1.778279410038922752e-03
1.490413855984317252e+03 3.162277660168379394e-03
1.566914800972394232e+03 5.623413251903490971e-03
1.660938618175872762e+03 1.000000000000000021e-02
1.764226577612626670e+03 1.778279410038922925e-02
1.868895100299170508e+03 3.162277660168379134e-02
1.997135901426323016e+03 5.623413251903491145e-02
2.174925416303171914e+03 1.000000000000000056e-01
2.380741485116390777e+03 1.778279410038922925e-01
2.581647645855422979e+03 3.162277660168379412e-01
2.775488896661390299e+03 5.623413251903490728e-01
2.969078424755467950e+03 1.000000000000000000e+00
3.166761283967638064e+03 1.778279410038922759e+00
3.371854085151287563e+03 3.162277660168379523e+00
3.588250018600889689e+03 5.623413251903491172e+00
3.820692937890015401e+03 1.000000000000000000e+01
4.074547551561663113e+03 1.778279410038922848e+01
4.357856752084806431e+03 3.162277660168379256e+01
4.676650597505828046e+03 5.623413251903490817e+01
5.039813524739047352e+03 1.000000000000000000e+02
5.451507683465937589e+03 1.778279410038922776e+02
5.940960812690364946e+03 3.162277660168379612e+02
