# Temperature (K), Pressure (bars)
2.290883305783305332e+03 9.999999999999999547e-07
2.301582978733645177e+03 1.778279410038922901e-06
2.312282651674964654e+03 3.162277660168379191e-06
2.334081522936100555e+03 5.623413251903491208e-06
2.362320738090482791e+03 1.000000000000000082e-05
2.393053582886052027e+03 1.778279410038922901e-05
2.426075559263158539e+03 3.162277660168379530e-05
2.461853656591959407e+03 5.623413251903490700e-05
2.500512959770626367e+03 1.000000000000000048e-04
2.540884736719452121e+03 1.778279410038922698e-04
2.582792992357588446e+03 3.162277660168379394e-04
2.625819470345132231e+03 5.623413251903490971e-04
2.667634077238604277e+03 1.000000000000000021e-03
2.705788741673315599e+03 1.778279410038922752e-03
2.739871252530343554e+03 3.162277660168379394e-03
2.773641789253393654e+03 5.623413251903490971e-03
2.811259019643674947e+03 1.000000000000000021e-02
2.858128993538242867e+03 1.778279410038922925e-02
2.908284537192496828e+03 3.162277660168379134e-02
2.972170674108521325e+03 5.623413251903491145e-02
3.084330077231121322e+03 1.000000000000000056e-01
3.234824349353457819e+03 1.778279410038922925e-01
3.403371828474665108e+03 3.162277660168379412e-01
3.595386300620817565e+03 5.623413251903490728e-01
3.814911941517189462e+03 1.000000000000000000e+00
4.065596742885260483e+03 1.778279410038922759e+00
4.353765475706526558e+03 3.162277660168379523e+00
4.676606510583056661e+03 5.623413251903491172e+00
5.069709303685906889e+03 1.000000000000000000e+01
5.569504844287293963e+03 1.778279410038922848e+01
6.245597891708308453e+03 3.162277660168379256e+01
7.224027198044748729e+03 5.623413251903490817e+01
8.651505870343948118e+03 1.000000000000000000e+02
1.000000000000000000e+04 1.778279410038922776e+02
1.000000000000000000e+04 3.162277660168379612e+02
