# Temperature (K), Pressure (bars)
2.197663558629845284e+03 9.999999999999999547e-07
2.204365555304160353e+03 1.778279410038922901e-06
2.211067551978476331e+03 3.162277660168379191e-06
2.234190308383842876e+03 5.623413251903491208e-06
2.264741874479516810e+03 1.000000000000000082e-05
2.297969606132258377e+03 1.778279410038922901e-05
2.336327513538455605e+03 3.162277660168379530e-05
2.379361644067628731e+03 5.623413251903490700e-05
2.426952465782519539e+03 1.000000000000000048e-04
2.478611391795713189e+03 1.778279410038922698e-04
2.531786268123131322e+03 3.162277660168379394e-04
2.584037319503682738e+03 5.623413251903490971e-04
2.634096237634029421e+03 1.000000000000000021e-03
2.679997454750598536e+03 1.778279410038922752e-03
2.719769348551321855e+03 3.162277660168379394e-03
2.755575227524784168e+03 5.623413251903490971e-03
2.792061948316402322e+03 1.000000000000000021e-02
2.839191947347444966e+03 1.778279410038922925e-02
2.894262838346950957e+03 3.162277660168379134e-02
2.971216620554072506e+03 5.623413251903491145e-02
3.102414744135166984e+03 1.000000000000000056e-01
3.265788810766776351e+03 1.778279410038922925e-01
3.442096946403513812e+03 3.162277660168379412e-01
3.643772830243354747e+03 5.623413251903490728e-01
3.874271991645494836e+03 1.000000000000000000e+00
4.137707427933331928e+03 1.778279410038922759e+00
4.443227631595109415e+03 3.162277660168379523e+00
4.791711246821487293e+03 5.623413251903491172e+00
5.227314171316702414e+03 1.000000000000000000e+01
5.803111144724352016e+03 1.778279410038922848e+01
6.623493673739568294e+03 3.162277660168379256e+01
7.851903010406999783e+03 5.623413251903490817e+01
9.554152094000795842e+03 1.000000000000000000e+02
1.000000000000000000e+04 1.778279410038922776e+02
1.000000000000000000e+04 3.162277660168379612e+02
