# Temperature (K), Pressure (bars)
1.590319119091554739e+03 9.999999999999999547e-07
1.597393352340151296e+03 1.778279410038922901e-06
1.604467586065178921e+03 3.162277660168379191e-06
1.619976168886929145e+03 5.623413251903491208e-06
1.644705206727856648e+03 1.000000000000000082e-05
1.672122055178070696e+03 1.778279410038922901e-05
1.710019595383941123e+03 3.162277660168379530e-05
1.775779752858936035e+03 5.623413251903490700e-05
1.843594918588117707e+03 1.000000000000000048e-04
1.893309363645197209e+03 1.778279410038922698e-04
1.937282086871450019e+03 3.162277660168379394e-04
1.978286242371721301e+03 5.623413251903490971e-04
2.016197171514340880e+03 1.000000000000000021e-03
2.051658148999307286e+03 1.778279410038922752e-03
2.084222779882192754e+03 3.162277660168379394e-03
2.115457765758274945e+03 5.623413251903490971e-03
2.148080209119758365e+03 1.000000000000000021e-02
2.184062825573917962e+03 1.778279410038922925e-02
2.229143923542661014e+03 3.162277660168379134e-02
2.284454768348312427e+03 5.623413251903491145e-02
2.368537616115424498e+03 1.000000000000000056e-01
2.510036933396329914e+03 1.778279410038922925e-01
2.685210676039225291e+03 3.162277660168379412e-01
2.865473860251519909e+03 5.623413251903490728e-01
3.052714639791539412e+03 1.000000000000000000e+00
3.248117007944229954e+03 1.778279410038922759e+00
3.454114530109776297e+03 3.162277660168379523e+00
3.673531088156539681e+03 5.623413251903491172e+00
3.910533884353857047e+03 1.000000000000000000e+01
4.170904693450331251e+03 1.778279410038922848e+01
4.460934795754266815e+03 3.162277660168379256e+01
4.788987579188907148e+03 5.623413251903490817e+01
5.168756398705476386e+03 1.000000000000000000e+02
5.611193782381667916e+03 1.778279410038922776e+02
6.135503482030161649e+03 3.162277660168379612e+02
