# Temperature (K), Pressure (bars)
9.476241908640232623e+02 5.623413251903490971e-04
9.961685102829111429e+02 1.000000000000000021e-03
1.044712831159223470e+03 1.778279410038922752e-03
1.090972387280958174e+03 3.162277660168379394e-03
1.135046789782856195e+03 5.623413251903490971e-03
1.177558345774482405e+03 1.000000000000000021e-02
1.221056440969956839e+03 1.778279410038922925e-02
1.268083067534728343e+03 3.162277660168379134e-02
1.322146047437998277e+03 5.623413251903491145e-02
1.389824623219686600e+03 1.000000000000000056e-01
1.472742703453865488e+03 1.778279410038922925e-01
1.572355833795485978e+03 3.162277660168379412e-01
1.692405079642130886e+03 5.623413251903490728e-01
1.831278531162824265e+03 1.000000000000000000e+00
1.988887538148045223e+03 1.778279410038922759e+00
2.201626416653292836e+03 3.162277660168379523e+00
2.487738063841346957e+03 5.623413251903491172e+00
2.786769904915577627e+03 1.000000000000000000e+01
3.067868237652497100e+03 1.778279410038922848e+01
3.349900627582699144e+03 3.162277660168379256e+01
3.640613496389886222e+03 5.623413251903490817e+01
3.947972053614914785e+03 1.000000000000000000e+02
4.276700485908356313e+03 1.778279410038922776e+02
4.641376275404876651e+03 3.162277660168379612e+02
