# Temperature (K), Pressure (bars)
2.258139812985095887e+03 9.999999999999999547e-07
2.273486064820924184e+03 1.778279410038922901e-06
2.288832316656752027e+03 3.162277660168379191e-06
2.314863476425871340e+03 5.623413251903491208e-06
2.341931762615245134e+03 1.000000000000000082e-05
2.367947298045589832e+03 1.778279410038922901e-05
2.399608550330037360e+03 3.162277660168379530e-05
2.437778134983595919e+03 5.623413251903490700e-05
2.480765225797850690e+03 1.000000000000000048e-04
2.526477234896198297e+03 1.778279410038922698e-04
2.573866115731556420e+03 3.162277660168379394e-04
2.622831323265451829e+03 5.623413251903490971e-04
2.672485362910179447e+03 1.000000000000000021e-03
2.723663774878989898e+03 1.778279410038922752e-03
2.779550876661711300e+03 3.162277660168379394e-03
2.841296536778600057e+03 5.623413251903490971e-03
2.900941903293053201e+03 1.000000000000000021e-02
2.944237391713919351e+03 1.778279410038922925e-02
2.968188752285075680e+03 3.162277660168379134e-02
3.026767650166480507e+03 5.623413251903491145e-02
3.165024860995291874e+03 1.000000000000000056e-01
3.340029200483661953e+03 1.778279410038922925e-01
3.527921426640207756e+03 3.162277660168379412e-01
3.746002551639740886e+03 5.623413251903490728e-01
4.000108879454964608e+03 1.000000000000000000e+00
4.299776590821762511e+03 1.778279410038922759e+00
4.632197496335370488e+03 3.162277660168379523e+00
5.053405729951249668e+03 5.623413251903491172e+00
5.626861071927040030e+03 1.000000000000000000e+01
6.480127329737028049e+03 1.778279410038922848e+01
7.778482898077715618e+03 3.162277660168379256e+01
9.519285788123193925e+03 5.623413251903490817e+01
1.000000000000000000e+04 1.000000000000000000e+02
1.000000000000000000e+04 1.778279410038922776e+02
1.000000000000000000e+04 3.162277660168379612e+02
