# Temperature (K), Pressure (bars)
1.008706489149140225e+03 3.162277660168379394e-04
1.060374506792890543e+03 5.623413251903490971e-04
1.112042526192932201e+03 1.000000000000000021e-03
1.161863553947278888e+03 1.778279410038922752e-03
1.212531527522347460e+03 3.162277660168379394e-03
1.265260591536212360e+03 5.623413251903490971e-03
1.320337483890064277e+03 1.000000000000000021e-02
1.379956915958992568e+03 1.778279410038922925e-02
1.449817397074914197e+03 3.162277660168379134e-02
1.538462142647500059e+03 5.623413251903491145e-02
1.650830631420044028e+03 1.000000000000000056e-01
1.789940033356558160e+03 1.778279410038922925e-01
1.951128722043321659e+03 3.162277660168379412e-01
2.151983860003585505e+03 5.623413251903490728e-01
2.405228727636713302e+03 1.000000000000000000e+00
2.662087734205681954e+03 1.778279410038922759e+00
2.898593627390187521e+03 3.162277660168379523e+00
3.131785077237667338e+03 5.623413251903491172e+00
3.368906559252545321e+03 1.000000000000000000e+01
3.616193935772229452e+03 1.778279410038922848e+01
3.881603136915175128e+03 3.162277660168379256e+01
4.170687583166540207e+03 5.623413251903490817e+01
4.490255410391682744e+03 1.000000000000000000e+02
4.843248597050063836e+03 1.778279410038922776e+02
5.249247913345959205e+03 3.162277660168379612e+02
