# Temperature (K), Pressure (bars)
7.863748366861025261e+02 1.000000000000000048e-04
8.351102969189611258e+02 1.778279410038922698e-04
8.838457582860008870e+02 3.162277660168379394e-04
9.315602494471884256e+02 5.623413251903490971e-04
9.789811283517913125e+02 1.000000000000000021e-03
1.027850910362339846e+03 1.778279410038922752e-03
1.080003894966135249e+03 3.162277660168379394e-03
1.138553826268714374e+03 5.623413251903490971e-03
1.206244418579863350e+03 1.000000000000000021e-02
1.289105484907232267e+03 1.778279410038922925e-02
1.392693476310508004e+03 3.162277660168379134e-02
1.544789621066923928e+03 5.623413251903491145e-02
1.770812788623729830e+03 1.000000000000000056e-01
2.031201878711307700e+03 1.778279410038922925e-01
2.283278484915151239e+03 3.162277660168379412e-01
2.519146151063703201e+03 5.623413251903490728e-01
2.739310161720163251e+03 1.000000000000000000e+00
2.950884812774143484e+03 1.778279410038922759e+00
3.161520157531308541e+03 3.162277660168379523e+00
3.377927512869852308e+03 5.623413251903491172e+00
3.605916927197089535e+03 1.000000000000000000e+01
3.851007638465453510e+03 1.778279410038922848e+01
4.121348970782953984e+03 3.162277660168379256e+01
4.421189456831499228e+03 5.623413251903490817e+01
4.757875003433248821e+03 1.000000000000000000e+02
5.135036448447438488e+03 1.778279410038922776e+02
5.575042127214624998e+03 3.162277660168379612e+02
