# Temperature (K), Pressure (bars)
9.318924115110628463e+02 5.623413251903490971e-04
9.773155579718912804e+02 1.000000000000000021e-03
1.022738704610847094e+03 1.778279410038922752e-03
1.064413197725316195e+03 3.162277660168379394e-03
1.105946712001334618e+03 5.623413251903490971e-03
1.149317832384691201e+03 1.000000000000000021e-02
1.195096955748555047e+03 1.778279410038922925e-02
1.243755732249634548e+03 3.162277660168379134e-02
1.296704215139281587e+03 5.623413251903491145e-02
1.363004378847741236e+03 1.000000000000000056e-01
1.454603770132697719e+03 1.778279410038922925e-01
1.576878114260545317e+03 3.162277660168379412e-01
1.727726808075855160e+03 5.623413251903490728e-01
1.907300204295268713e+03 1.000000000000000000e+00
2.137945293336302257e+03 1.778279410038922759e+00
2.419461289109221070e+03 3.162277660168379523e+00
2.704050529546580037e+03 5.623413251903491172e+00
2.972887937762880028e+03 1.000000000000000000e+01
3.239056608456661252e+03 1.778279410038922848e+01
3.512108453242492033e+03 3.162277660168379256e+01
3.798762877278718406e+03 5.623413251903490817e+01
4.106501766003386365e+03 1.000000000000000000e+02
4.439253247393462516e+03 1.778279410038922776e+02
4.812926630201450280e+03 3.162277660168379612e+02
