# Temperature (K), Pressure (bars)
1.086331392669126672e+03 9.999999999999999547e-07
1.177759556741907545e+03 1.778279410038922901e-06
1.269187720814780278e+03 3.162277660168379191e-06
1.392474892528858618e+03 5.623413251903491208e-06
1.521760627114666477e+03 1.000000000000000082e-05
1.621878567525351627e+03 1.778279410038922901e-05
1.697225546104520163e+03 3.162277660168379530e-05
1.762258239930858508e+03 5.623413251903490700e-05
1.818485139190751852e+03 1.000000000000000048e-04
1.865737028043512055e+03 1.778279410038922698e-04
1.907644526911156845e+03 3.162277660168379394e-04
1.947625297463337347e+03 5.623413251903490971e-04
1.988170869051760747e+03 1.000000000000000021e-03
2.031696825527128340e+03 1.778279410038922752e-03
2.079503836423495159e+03 3.162277660168379394e-03
2.134025569629995971e+03 5.623413251903490971e-03
2.197430240609518478e+03 1.000000000000000021e-02
2.276124584671124467e+03 1.778279410038922925e-02
2.385626321268347510e+03 3.162277660168379134e-02
2.525557488565927088e+03 5.623413251903491145e-02
2.677955568565104841e+03 1.000000000000000056e-01
2.837175216895831909e+03 1.778279410038922925e-01
3.006595645771913496e+03 3.162277660168379412e-01
3.186378611273109527e+03 5.623413251903490728e-01
3.376027886912026588e+03 1.000000000000000000e+00
3.576977560948638711e+03 1.778279410038922759e+00
3.793026963490011440e+03 3.162277660168379523e+00
4.029293795669324027e+03 5.623413251903491172e+00
4.291861804099963592e+03 1.000000000000000000e+01
4.588232903136695313e+03 1.778279410038922848e+01
4.928492888292204952e+03 3.162277660168379256e+01
5.329670367045382591e+03 5.623413251903490817e+01
5.808250907237918000e+03 1.000000000000000000e+02
6.393058819704855523e+03 1.778279410038922776e+02
7.129130719811292693e+03 3.162277660168379612e+02
