# Temperature (K), Pressure (bars)
7.848151424265296328e+02 5.623413251903490971e-04
8.214918333816449376e+02 1.000000000000000021e-03
8.581685252035917983e+02 1.778279410038922752e-03
8.947042053492588138e+02 3.162277660168379394e-03
9.316282538612779263e+02 5.623413251903490971e-03
9.694364322366274109e+02 1.000000000000000021e-02
1.008458601303379851e+03 1.778279410038922925e-02
1.049382944044903525e+03 3.162277660168379134e-02
1.094772786701398218e+03 5.623413251903491145e-02
1.148512374539897792e+03 1.000000000000000056e-01
1.216706643751677802e+03 1.778279410038922925e-01
1.306297353393431649e+03 3.162277660168379412e-01
1.433570198469639081e+03 5.623413251903490728e-01
1.627381266998599813e+03 1.000000000000000000e+00
1.884034844717647957e+03 1.778279410038922759e+00
2.166677568175588931e+03 3.162277660168379523e+00
2.454955114627782223e+03 5.623413251903491172e+00
2.742062006763866975e+03 1.000000000000000000e+01
3.024684180477170685e+03 1.778279410038922848e+01
3.309009563720132064e+03 3.162277660168379256e+01
3.600947646209390768e+03 5.623413251903490817e+01
3.908440183175653601e+03 1.000000000000000000e+02
4.236374114858127541e+03 1.778279410038922776e+02
4.599178762257549351e+03 3.162277660168379612e+02
