# Temperature (K), Pressure (bars)
1.256607756652951139e+03 9.999999999999999547e-07
1.275977011108846000e+03 1.778279410038922901e-06
1.295346265568334729e+03 3.162277660168379191e-06
1.321457344125711415e+03 5.623413251903491208e-06
1.353661873803604067e+03 1.000000000000000082e-05
1.391942818141315001e+03 1.778279410038922901e-05
1.436455220392899264e+03 3.162277660168379530e-05
1.489906235275050449e+03 5.623413251903490700e-05
1.558253914492548574e+03 1.000000000000000048e-04
1.633943464868381852e+03 1.778279410038922698e-04
1.707410849199485710e+03 3.162277660168379394e-04
1.780618121455996970e+03 5.623413251903490971e-04
1.859612818697031116e+03 1.000000000000000021e-03
1.944762768900621268e+03 1.778279410038922752e-03
2.046765391060629554e+03 3.162277660168379394e-03
2.180599423073708749e+03 5.623413251903490971e-03
2.328541954077001719e+03 1.000000000000000021e-02
2.474971797359360608e+03 1.778279410038922925e-02
2.623979784074208965e+03 3.162277660168379134e-02
2.777699169181847537e+03 5.623413251903491145e-02
2.938257699191235588e+03 1.000000000000000056e-01
3.107776044474785976e+03 1.778279410038922925e-01
3.287867694107464558e+03 3.162277660168379412e-01
3.479726617930699376e+03 5.623413251903490728e-01
3.685693245314420892e+03 1.000000000000000000e+00
3.910358668890290573e+03 1.778279410038922759e+00
4.160323534883305001e+03 3.162277660168379523e+00
4.444280295317646960e+03 5.623413251903491172e+00
4.774400916267328284e+03 1.000000000000000000e+01
5.168689079611815032e+03 1.778279410038922848e+01
5.656306890308807851e+03 3.162277660168379256e+01
6.285769612190426415e+03 5.623413251903490817e+01
7.143115669233202425e+03 1.000000000000000000e+02
8.363670912739517007e+03 1.778279410038922776e+02
1.005311842515828721e+04 3.162277660168379612e+02
