# Temperature (K), Pressure (bars)
1.469278181869921809e+03 1.778279410038922901e-06
1.496248635536892607e+03 3.162277660168379191e-06
1.523381563865361386e+03 5.623413251903491208e-06
1.560706232106146217e+03 1.000000000000000082e-05
1.608104164037628379e+03 1.778279410038922901e-05
1.657394182151398809e+03 3.162277660168379530e-05
1.706843321802160517e+03 5.623413251903490700e-05
1.759382399842864743e+03 1.000000000000000048e-04
1.817137501753468086e+03 1.778279410038922698e-04
1.879130504939048478e+03 3.162277660168379394e-04
1.943624201846664391e+03 5.623413251903490971e-04
2.011937901977373713e+03 1.000000000000000021e-03
2.083966311509738262e+03 1.778279410038922752e-03
2.165165757132373074e+03 3.162277660168379394e-03
2.267781561254116241e+03 5.623413251903490971e-03
2.389070528190417917e+03 1.000000000000000021e-02
2.518292499791156843e+03 1.778279410038922925e-02
2.653591190322109924e+03 3.162277660168379134e-02
2.796471545391101245e+03 5.623413251903491145e-02
2.948530674938409902e+03 1.000000000000000056e-01
3.111628631323565060e+03 1.778279410038922925e-01
3.287774006410412312e+03 3.162277660168379412e-01
3.478764186525899277e+03 5.623413251903490728e-01
3.686386254006438321e+03 1.000000000000000000e+00
3.913738580448095490e+03 1.778279410038922759e+00
4.166488847810006519e+03 3.162277660168379523e+00
4.453261421528493884e+03 5.623413251903491172e+00
4.786404662769763490e+03 1.000000000000000000e+01
5.182567346109250138e+03 1.778279410038922848e+01
5.672498765073921277e+03 3.162277660168379256e+01
6.301994612020102068e+03 5.623413251903490817e+01
7.144707868645325107e+03 1.000000000000000000e+02
8.331175228882835654e+03 1.778279410038922776e+02
9.999403699713440801e+03 3.162277660168379612e+02
