# Temperature (K), Pressure (bars)
1.047331528884292993e+03 3.162277660168379394e-04
1.106810440963169867e+03 5.623413251903490971e-04
1.166289354178227768e+03 1.000000000000000021e-03
1.213301602951981067e+03 1.778279410038922752e-03
1.248685469571043996e+03 3.162277660168379394e-03
1.280041043653089673e+03 5.623413251903490971e-03
1.311183510075734603e+03 1.000000000000000021e-02
1.340258768364607477e+03 1.778279410038922925e-02
1.373481053544829592e+03 3.162277660168379134e-02
1.432300970862468603e+03 5.623413251903491145e-02
1.519534004274067911e+03 1.000000000000000056e-01
1.633213001087055545e+03 1.778279410038922925e-01
1.770431055549683833e+03 3.162277660168379412e-01
1.911604681332847576e+03 5.623413251903490728e-01
2.043358377614742267e+03 1.000000000000000000e+00
2.212853124488217418e+03 1.778279410038922759e+00
2.473371273130598638e+03 3.162277660168379523e+00
2.760828364924624111e+03 5.623413251903491172e+00
3.025745282084884821e+03 1.000000000000000000e+01
3.288738969771715801e+03 1.778279410038922848e+01
3.559618892737257283e+03 3.162277660168379256e+01
3.845581422440071492e+03 5.623413251903490817e+01
4.153831875508480152e+03 1.000000000000000000e+02
4.488197275065673239e+03 1.778279410038922776e+02
4.864585934628270479e+03 3.162277660168379612e+02
