# Temperature (K), Pressure (bars)
9.170870988013119813e+02 1.000000000000000021e-03
9.572021902188910190e+02 1.778279410038922752e-03
9.973172818505023542e+02 3.162277660168379394e-03
1.035927219922694576e+03 5.623413251903490971e-03
1.075323416987091605e+03 1.000000000000000021e-02
1.116661116882059105e+03 1.778279410038922925e-02
1.160090167065325431e+03 3.162277660168379134e-02
1.206591734485753477e+03 5.623413251903491145e-02
1.257621011919664397e+03 1.000000000000000056e-01
1.316505220083904760e+03 1.778279410038922925e-01
1.387122179337460011e+03 3.162277660168379412e-01
1.492802097715440823e+03 5.623413251903490728e-01
1.671066450960385509e+03 1.000000000000000000e+00
1.919761017388619166e+03 1.778279410038922759e+00
2.201973009036681560e+03 3.162277660168379523e+00
2.490338544028732940e+03 5.623413251903491172e+00
2.774938577233549040e+03 1.000000000000000000e+01
3.055412069156626330e+03 1.778279410038922848e+01
3.337896180140981414e+03 3.162277660168379256e+01
3.628761383520105937e+03 5.623413251903490817e+01
3.935997557331252665e+03 1.000000000000000000e+02
4.264345936853653257e+03 1.778279410038922776e+02
4.628399213566946855e+03 3.162277660168379612e+02
