# Temperature (K), Pressure (bars)
1.015327064515278607e+03 5.623413251903490700e-05
1.045670545966068858e+03 1.000000000000000048e-04
1.076014024468322532e+03 1.778279410038922698e-04
1.106233676622218582e+03 3.162277660168379394e-04
1.135406851400491405e+03 5.623413251903490971e-04
1.172611961483525420e+03 1.000000000000000021e-03
1.238340229099451790e+03 1.778279410038922752e-03
1.314122524601844816e+03 3.162277660168379394e-03
1.401351519313798235e+03 5.623413251903490971e-03
1.523578871735338453e+03 1.000000000000000021e-02
1.629384247920968392e+03 1.778279410038922925e-02
1.688861384925031416e+03 3.162277660168379134e-02
1.743228886249421976e+03 5.623413251903491145e-02
1.812464882944445662e+03 1.000000000000000056e-01
1.894481547176320191e+03 1.778279410038922925e-01
1.985233087810567213e+03 3.162277660168379412e-01
2.121244858909119102e+03 5.623413251903490728e-01
2.348455272031688764e+03 1.000000000000000000e+00
2.608968874653521198e+03 1.778279410038922759e+00
2.851652148747969022e+03 3.162277660168379523e+00
3.089505829347463987e+03 5.623413251903491172e+00
3.329288197052233045e+03 1.000000000000000000e+01
3.577711332847022732e+03 1.778279410038922848e+01
3.843057711255694812e+03 3.162277660168379256e+01
4.131100807557135340e+03 5.623413251903490817e+01
4.448646398343057626e+03 1.000000000000000000e+02
4.798670170892499300e+03 1.778279410038922776e+02
5.200326381442341699e+03 3.162277660168379612e+02
