# Temperature (K), Pressure (bars)
8.777697662273307060e+02 5.623413251903490700e-05
9.264267797347021087e+02 1.000000000000000048e-04
9.750837927026112766e+02 1.778279410038922698e-04
1.022632863768435755e+03 3.162277660168379394e-04
1.072140784291449336e+03 5.623413251903490971e-04
1.124809761565586768e+03 1.000000000000000021e-03
1.176840196850291250e+03 1.778279410038922752e-03
1.225991742075026878e+03 3.162277660168379394e-03
1.271374421659211521e+03 5.623413251903490971e-03
1.311415064727324534e+03 1.000000000000000021e-02
1.349852721341065717e+03 1.778279410038922925e-02
1.395379139741674635e+03 3.162277660168379134e-02
1.454001220521695586e+03 5.623413251903491145e-02
1.516162267541065148e+03 1.000000000000000056e-01
1.632419461334375910e+03 1.778279410038922925e-01
1.862339667975682005e+03 3.162277660168379412e-01
2.138428045196249968e+03 5.623413251903490728e-01
2.399712131805926219e+03 1.000000000000000000e+00
2.649444395483367316e+03 1.778279410038922759e+00
2.888416776886590924e+03 3.162277660168379523e+00
3.122572741780402794e+03 5.623413251903491172e+00
3.359426491678241291e+03 1.000000000000000000e+01
3.606224862083167409e+03 1.778279410038922848e+01
3.871542584290951709e+03 3.162277660168379256e+01
4.160363700955771492e+03 5.623413251903490817e+01
4.479399133032130521e+03 1.000000000000000000e+02
4.831688767185311008e+03 1.778279410038922776e+02
5.236149961008009086e+03 3.162277660168379612e+02
