# Temperature (K), Pressure (bars)
2.295631094868976561e+03 9.999999999999999547e-07
2.304352706832828517e+03 1.778279410038922901e-06
2.313074318796680927e+03 3.162277660168379191e-06
2.333833116646808321e+03 5.623413251903491208e-06
2.360254728990258627e+03 1.000000000000000082e-05
2.389638920201038218e+03 1.778279410038922901e-05
2.421737697894607209e+03 3.162277660168379530e-05
2.456029636828543062e+03 5.623413251903490700e-05
2.492290316266853097e+03 1.000000000000000048e-04
2.528221477214566676e+03 1.778279410038922698e-04
2.562908755635578473e+03 3.162277660168379394e-04
2.596289871053738352e+03 5.623413251903490971e-04
2.629768370561148004e+03 1.000000000000000021e-03
2.667598482429538308e+03 1.778279410038922752e-03
2.715937151293599527e+03 3.162277660168379394e-03
2.776266457575651202e+03 5.623413251903490971e-03
2.839198094989683796e+03 1.000000000000000021e-02
2.886115154530088148e+03 1.778279410038922925e-02
2.919505641254896091e+03 3.162277660168379134e-02
2.992163389850154545e+03 5.623413251903491145e-02
3.130034059691660786e+03 1.000000000000000056e-01
3.295383124107399453e+03 1.778279410038922925e-01
3.474102359479949428e+03 3.162277660168379412e-01
3.679565603749825186e+03 5.623413251903490728e-01
3.916922567882607837e+03 1.000000000000000000e+00
4.191565575075766901e+03 1.778279410038922759e+00
4.514892323386342468e+03 3.162277660168379523e+00
4.888000009943835721e+03 5.623413251903491172e+00
5.368280323342514748e+03 1.000000000000000000e+01
6.033654413604465844e+03 1.778279410038922848e+01
7.028439016001439086e+03 3.162277660168379256e+01
8.491335721430159538e+03 5.623413251903490817e+01
1.000000000000000000e+04 1.000000000000000000e+02
1.000000000000000000e+04 1.778279410038922776e+02
1.000000000000000000e+04 3.162277660168379612e+02
