# Temperature (K), Pressure (bars)
8.559505135948554653e+02 3.162277660168379394e-04
8.995063951706320040e+02 5.623413251903490971e-04
9.430622776822792730e+02 1.000000000000000021e-03
9.861085357106748006e+02 1.778279410038922752e-03
1.028665422004229185e+03 3.162277660168379394e-03
1.071873163859647093e+03 5.623413251903490971e-03
1.116848094711525164e+03 1.000000000000000021e-02
1.170225931435852999e+03 1.778279410038922925e-02
1.229528392271022767e+03 3.162277660168379134e-02
1.330324869650935625e+03 5.623413251903491145e-02
1.527484158106231689e+03 1.000000000000000056e-01
1.782463016517726146e+03 1.778279410038922925e-01
2.045721644567840940e+03 3.162277660168379412e-01
2.306834169243136785e+03 5.623413251903490728e-01
2.553526174231879850e+03 1.000000000000000000e+00
2.785350427827870590e+03 1.778279410038922759e+00
3.008995246794666855e+03 3.162277660168379523e+00
3.232649403887759490e+03 5.623413251903491172e+00
3.463513397960871316e+03 1.000000000000000000e+01
3.707911574198834842e+03 1.778279410038922848e+01
3.974148987250365280e+03 3.162277660168379256e+01
4.266478837972576912e+03 5.623413251903490817e+01
4.591714575851596237e+03 1.000000000000000000e+02
4.952903916599957483e+03 1.778279410038922776e+02
5.370638873375440198e+03 3.162277660168379612e+02
