# Temperature (K), Pressure (bars)
2.413099629080684281e+03 3.162277660168379191e-06
2.416101727805546034e+03 5.623413251903491208e-06
2.419103840518320794e+03 1.000000000000000082e-05
2.437842844297299052e+03 1.778279410038922901e-05
2.467049960657693646e+03 3.162277660168379530e-05
2.500776947043823384e+03 5.623413251903490700e-05
2.537713212167588154e+03 1.000000000000000048e-04
2.577463165169812783e+03 1.778279410038922698e-04
2.621273912178131468e+03 3.162277660168379394e-04
2.669507001825355019e+03 5.623413251903490971e-04
2.722556835806414711e+03 1.000000000000000021e-03
2.781580048892694322e+03 1.778279410038922752e-03
2.846618806281114303e+03 3.162277660168379394e-03
2.915491422783481539e+03 5.623413251903490971e-03
2.984894985704689589e+03 1.000000000000000021e-02
3.052088006899796710e+03 1.778279410038922925e-02
3.113572190364584003e+03 3.162277660168379134e-02
3.169695945747984752e+03 5.623413251903491145e-02
3.219231920726817407e+03 1.000000000000000056e-01
3.303856077586273386e+03 1.778279410038922925e-01
3.470388159050240574e+03 3.162277660168379412e-01
3.679569349257175872e+03 5.623413251903490728e-01
3.907582033122845587e+03 1.000000000000000000e+00
4.175724625747381651e+03 1.778279410038922759e+00
4.495663866557792971e+03 3.162277660168379523e+00
4.861825930943184176e+03 5.623413251903491172e+00
5.329441473818927989e+03 1.000000000000000000e+01
5.969659097026009476e+03 1.778279410038922848e+01
6.917341868681594860e+03 3.162277660168379256e+01
8.322761604757019086e+03 5.623413251903490817e+01
1.000000000000000000e+04 1.000000000000000000e+02
1.000000000000000000e+04 1.778279410038922776e+02
1.000000000000000000e+04 3.162277660168379612e+02
