# Temperature (K), Pressure (bars)
2.411938905223051279e+03 9.999999999999999547e-07
2.416959951193341112e+03 1.778279410038922901e-06
2.421980997163870597e+03 3.162277660168379191e-06
2.438162442905079843e+03 5.623413251903491208e-06
2.463092484823289851e+03 1.000000000000000082e-05
2.491603434852535429e+03 1.778279410038922901e-05
2.521911324483297903e+03 3.162277660168379530e-05
2.552791196330887033e+03 5.623413251903490700e-05
2.583660295899794619e+03 1.000000000000000048e-04
2.614397261728618105e+03 1.778279410038922698e-04
2.643824417731088033e+03 3.162277660168379394e-04
2.669375438643504822e+03 5.623413251903490971e-04
2.688345007822280877e+03 1.000000000000000021e-03
2.700869227851761934e+03 1.778279410038922752e-03
2.711729429023952434e+03 3.162277660168379394e-03
2.728139843925784135e+03 5.623413251903490971e-03
2.754319414146588315e+03 1.000000000000000021e-02
2.793151289310484572e+03 1.778279410038922925e-02
2.844083551181337498e+03 3.162277660168379134e-02
2.915354051568075647e+03 5.623413251903491145e-02
3.025167444591339518e+03 1.000000000000000056e-01
3.167334896207918064e+03 1.778279410038922925e-01
3.327489890928004115e+03 3.162277660168379412e-01
3.506558169751698642e+03 5.623413251903490728e-01
3.708782259105668345e+03 1.000000000000000000e+00
3.938103303545089602e+03 1.778279410038922759e+00
4.198651098239701241e+03 3.162277660168379523e+00
4.497187541721261368e+03 5.623413251903491172e+00
4.838141580001296461e+03 1.000000000000000000e+01
5.250834234182992077e+03 1.778279410038922848e+01
5.769002682241966795e+03 3.162277660168379256e+01
6.453160690037982931e+03 5.623413251903490817e+01
7.411361229507769167e+03 1.000000000000000000e+02
8.786917896498591290e+03 1.778279410038922776e+02
1.060286868726431931e+04 3.162277660168379612e+02
