# Temperature (K), Pressure (bars)
1.025612947243991584e+03 3.162277660168379394e-04
1.077985584326673006e+03 5.623413251903490971e-04
1.130358223004862339e+03 1.000000000000000021e-03
1.181066495028323516e+03 1.778279410038922752e-03
1.233043456877221843e+03 3.162277660168379394e-03
1.288299061341797142e+03 5.623413251903490971e-03
1.349170441683094850e+03 1.000000000000000021e-02
1.419316132531419498e+03 1.778279410038922925e-02
1.500060663247185857e+03 3.162277660168379134e-02
1.594555045995714863e+03 5.623413251903491145e-02
1.706185797924222925e+03 1.000000000000000056e-01
1.835604995038932202e+03 1.778279410038922925e-01
1.984908152010621279e+03 3.162277660168379412e-01
2.180297507754515664e+03 5.623413251903490728e-01
2.430448508297706212e+03 1.000000000000000000e+00
2.684066757920170858e+03 1.778279410038922759e+00
2.918579270281749814e+03 3.162277660168379523e+00
3.150521362902868532e+03 5.623413251903491172e+00
3.386885155136600588e+03 1.000000000000000000e+01
3.633867732887461443e+03 1.778279410038922848e+01
3.899479432173910936e+03 3.162277660168379256e+01
4.189237050108638869e+03 5.623413251903490817e+01
4.510004409953140566e+03 1.000000000000000000e+02
4.864923325898667827e+03 1.778279410038922776e+02
5.273400616987719332e+03 3.162277660168379612e+02
