# Temperature (K), Pressure (bars)
8.693559383339061242e+02 3.162277660168379394e-04
9.124668156504674243e+02 5.623413251903490971e-04
9.555776941875880084e+02 1.000000000000000021e-03
9.995350908364686120e+02 1.778279410038922752e-03
1.043592396856931828e+03 3.162277660168379394e-03
1.088035965581181699e+03 5.623413251903490971e-03
1.133476370689025316e+03 1.000000000000000021e-02
1.185471592401366934e+03 1.778279410038922925e-02
1.242218421537037329e+03 3.162277660168379134e-02
1.334713148807676362e+03 5.623413251903491145e-02
1.516620590070413527e+03 1.000000000000000056e-01
1.761956375280878774e+03 1.778279410038922925e-01
2.023333922121269779e+03 3.162277660168379412e-01
2.284717704374279947e+03 5.623413251903490728e-01
2.533365371713253353e+03 1.000000000000000000e+00
2.767821238408359932e+03 1.778279410038922759e+00
2.993775858826536023e+03 3.162277660168379523e+00
3.218992191250750238e+03 5.623413251903491172e+00
3.450745523021044391e+03 1.000000000000000000e+01
3.695496552808989691e+03 1.778279410038922848e+01
3.961590843012572350e+03 3.162277660168379256e+01
4.253478600444333097e+03 5.623413251903490817e+01
4.577949280168880250e+03 1.000000000000000000e+02
4.938175293428072109e+03 1.778279410038922776e+02
5.354329658025502795e+03 3.162277660168379612e+02
