# Temperature (K), Pressure (bars)
2.259663408893962696e+03 9.999999999999999547e-07
2.265572700149871253e+03 1.778279410038922901e-06
2.271481991405779809e+03 3.162277660168379191e-06
2.298771541497574617e+03 5.623413251903491208e-06
2.335082347000299706e+03 1.000000000000000082e-05
2.373106653018135603e+03 1.778279410038922901e-05
2.418001595113469648e+03 3.162277660168379530e-05
2.469346520507720015e+03 5.623413251903490700e-05
2.524078115189631262e+03 1.000000000000000048e-04
2.580137321494333264e+03 1.778279410038922698e-04
2.635971123788576278e+03 3.162277660168379394e-04
2.689648162370695900e+03 5.623413251903490971e-04
2.738915409054719930e+03 1.000000000000000021e-03
2.782636720345875347e+03 1.778279410038922752e-03
2.823774096113264022e+03 3.162277660168379394e-03
2.867551729207606513e+03 5.623413251903490971e-03
2.921993693755025106e+03 1.000000000000000021e-02
2.987252247487455406e+03 1.778279410038922925e-02
3.071342391760213559e+03 3.162277660168379134e-02
3.198090515215397318e+03 5.623413251903491145e-02
3.365447576626977025e+03 1.000000000000000056e-01
3.554162116976137440e+03 1.778279410038922925e-01
3.775079050061885937e+03 3.162277660168379412e-01
4.037355085906373461e+03 5.623413251903490728e-01
4.346136058913218221e+03 1.000000000000000000e+00
4.751196902651819983e+03 1.778279410038922759e+00
5.336246878809836744e+03 3.162277660168379523e+00
6.258122630940189993e+03 5.623413251903491172e+00
7.655598124205741442e+03 1.000000000000000000e+01
9.389846574609993695e+03 1.778279410038922848e+01
1.000000000000000000e+04 3.162277660168379256e+01
1.000000000000000000e+04 5.623413251903490817e+01
1.000000000000000000e+04 1.000000000000000000e+02
1.000000000000000000e+04 1.778279410038922776e+02
1.000000000000000000e+04 3.162277660168379612e+02
