# Temperature (K), Pressure (bars)
8.533768587680035580e+02 3.162277660168379394e-04
9.051416535937086110e+02 5.623413251903490971e-04
9.569064495700218913e+02 1.000000000000000021e-03
1.007400145982301069e+03 1.778279410038922752e-03
1.057438304757542937e+03 3.162277660168379394e-03
1.109243674631774184e+03 5.623413251903490971e-03
1.165877838966078798e+03 1.000000000000000021e-02
1.230398462437586204e+03 1.778279410038922925e-02
1.309830567453564981e+03 3.162277660168379134e-02
1.408018909127916231e+03 5.623413251903491145e-02
1.547104154657666186e+03 1.000000000000000056e-01
1.748980562430229611e+03 1.778279410038922925e-01
1.992304537134247767e+03 3.162277660168379412e-01
2.253002141483220385e+03 5.623413251903490728e-01
2.508118625651674392e+03 1.000000000000000000e+00
2.745182301170566461e+03 1.778279410038922759e+00
2.973405025966084395e+03 3.162277660168379523e+00
3.200281741234225137e+03 5.623413251903491172e+00
3.432856443252484496e+03 1.000000000000000000e+01
3.677605950676632347e+03 1.778279410038922848e+01
3.942860796182191280e+03 3.162277660168379256e+01
4.233153424874849406e+03 5.623413251903490817e+01
4.555196990054416347e+03 1.000000000000000000e+02
4.912370882878807606e+03 1.778279410038922776e+02
5.323852331907388361e+03 3.162277660168379612e+02
