# Temperature (K), Pressure (bars)
2.238716386530985346e+03 9.999999999999999547e-07
2.265835074042554879e+03 1.778279410038922901e-06
2.292953761554124867e+03 3.162277660168379191e-06
2.324829861720184454e+03 5.623413251903491208e-06
2.359082621350720729e+03 1.000000000000000082e-05
2.393380514389976270e+03 1.778279410038922901e-05
2.426145707622280952e+03 3.162277660168379530e-05
2.453687340822561964e+03 5.623413251903490700e-05
2.472826035461089759e+03 1.000000000000000048e-04
2.486586170039823173e+03 1.778279410038922698e-04
2.505054051052246450e+03 3.162277660168379394e-04
2.537199838205307515e+03 5.623413251903490971e-04
2.585291854989547573e+03 1.000000000000000021e-03
2.647936869531757566e+03 1.778279410038922752e-03
2.722393149672495838e+03 3.162277660168379394e-03
2.807045533157347108e+03 5.623413251903490971e-03
2.897255489743285580e+03 1.000000000000000021e-02
2.997943001159296273e+03 1.778279410038922925e-02
3.127955109333533983e+03 3.162277660168379134e-02
3.292400416340348784e+03 5.623413251903491145e-02
3.476496952358936142e+03 1.000000000000000056e-01
3.697863881179653163e+03 1.778279410038922925e-01
3.954761705251173225e+03 3.162277660168379412e-01
4.270628722997352270e+03 5.623413251903490728e-01
4.710933406667920281e+03 1.000000000000000000e+00
5.412143625230713951e+03 1.778279410038922759e+00
6.559257875706709456e+03 3.162277660168379523e+00
8.108991820550840202e+03 5.623413251903491172e+00
9.826271485319244675e+03 1.000000000000000000e+01
1.000000000000000000e+04 1.778279410038922848e+01
1.000000000000000000e+04 3.162277660168379256e+01
1.000000000000000000e+04 5.623413251903490817e+01
1.000000000000000000e+04 1.000000000000000000e+02
1.000000000000000000e+04 1.778279410038922776e+02
1.000000000000000000e+04 3.162277660168379612e+02
