# Temperature (K), Pressure (bars)
8.854980762614188734e+02 5.623413251903490700e-05
9.410798713762414991e+02 1.000000000000000048e-04
9.966616661389130059e+02 1.778279410038922698e-04
1.049258448741870325e+03 3.162277660168379394e-04
1.103797084767548768e+03 5.623413251903490971e-04
1.159381257432952680e+03 1.000000000000000021e-03
1.208375922773288266e+03 1.778279410038922752e-03
1.248169643791038197e+03 3.162277660168379394e-03
1.283766123010547972e+03 5.623413251903490971e-03
1.319881836217308319e+03 1.000000000000000021e-02
1.360003687717889761e+03 1.778279410038922925e-02
1.407539432919350247e+03 3.162277660168379134e-02
1.456005917411415794e+03 5.623413251903491145e-02
1.526065581464723209e+03 1.000000000000000056e-01
1.664992035566213872e+03 1.778279410038922925e-01
1.881798846461722178e+03 3.162277660168379412e-01
2.144472387490191977e+03 5.623413251903490728e-01
2.408854005669657454e+03 1.000000000000000000e+00
2.656685815022165116e+03 1.778279410038922759e+00
2.894597214408774107e+03 3.162277660168379523e+00
3.128465569823071291e+03 5.623413251903491172e+00
3.365317565832703167e+03 1.000000000000000000e+01
3.612185194529781711e+03 1.778279410038922848e+01
3.877520216938499743e+03 3.162277660168379256e+01
4.166497697645925655e+03 5.623413251903490817e+01
4.485853913236545850e+03 1.000000000000000000e+02
4.838592581424956734e+03 1.778279410038922776e+02
5.243831656217347700e+03 3.162277660168379612e+02
