# Temperature (K), Pressure (bars)
1.371432555274251627e+03 1.778279410038922901e-06
1.399459125744563380e+03 3.162277660168379191e-06
1.427725352792046124e+03 5.623413251903491208e-06
1.460540656904252046e+03 1.000000000000000082e-05
1.504855683082521864e+03 1.778279410038922901e-05
1.562659345231558973e+03 3.162277660168379530e-05
1.625899481531601850e+03 5.623413251903490700e-05
1.688677232641953424e+03 1.000000000000000048e-04
1.753864018034725632e+03 1.778279410038922698e-04
1.823977329476569139e+03 3.162277660168379394e-04
1.899255128476467689e+03 5.623413251903490971e-04
1.979087874220386311e+03 1.000000000000000021e-03
2.071479033299949151e+03 1.778279410038922752e-03
2.187926894349057420e+03 3.162277660168379394e-03
2.318817488978522306e+03 5.623413251903490971e-03
2.452815188679691801e+03 1.000000000000000021e-02
2.591112638088458880e+03 1.778279410038922925e-02
2.735370465630232047e+03 3.162277660168379134e-02
2.887476365996019013e+03 5.623413251903491145e-02
3.049573205557077017e+03 1.000000000000000056e-01
3.223930066562047614e+03 1.778279410038922925e-01
3.412397219481807497e+03 3.162277660168379412e-01
3.616646592860109195e+03 5.623413251903490728e-01
3.839966261526534254e+03 1.000000000000000000e+00
4.088785564253532357e+03 1.778279410038922759e+00
4.372951345230621882e+03 3.162277660168379523e+00
4.700458888904155174e+03 5.623413251903491172e+00
5.101317624900130795e+03 1.000000000000000000e+01
5.614743966943534360e+03 1.778279410038922848e+01
6.313149059386045337e+03 3.162277660168379256e+01
7.327938536814201143e+03 5.623413251903490817e+01
8.807039834887540565e+03 1.000000000000000000e+02
1.071300655855877449e+04 1.778279410038922776e+02
1.299614202524239408e+04 3.162277660168379612e+02
