# Temperature (K), Pressure (bars)
7.940841043913890189e+02 9.999999999999999547e-07
8.559147363216951589e+02 1.778279410038922901e-06
9.177453682520012990e+02 3.162277660168379191e-06
9.808608244090614789e+02 5.623413251903491208e-06
1.045700100967356320e+03 1.000000000000000082e-05
1.121521748101088633e+03 1.778279410038922901e-05
1.230014797271174757e+03 3.162277660168379530e-05
1.388788777568222940e+03 5.623413251903490700e-05
1.566339794319508655e+03 1.000000000000000048e-04
1.695124214573665085e+03 1.778279410038922698e-04
1.768629783000390717e+03 3.162277660168379394e-04
1.829915805652273093e+03 5.623413251903490971e-04
1.894051032785879215e+03 1.000000000000000021e-03
1.962153266984253378e+03 1.778279410038922752e-03
2.037732995927746970e+03 3.162277660168379394e-03
2.132074092949216265e+03 5.623413251903490971e-03
2.258304488315106937e+03 1.000000000000000021e-02
2.401902137577607391e+03 1.778279410038922925e-02
2.548629010495323655e+03 3.162277660168379134e-02
2.701053621146726073e+03 5.623413251903491145e-02
2.861528703491267152e+03 1.000000000000000056e-01
3.031468613433561586e+03 1.778279410038922925e-01
3.210609638851578438e+03 3.162277660168379412e-01
3.398771152099302526e+03 5.623413251903490728e-01
3.598103229207750701e+03 1.000000000000000000e+00
3.813103587590076586e+03 1.778279410038922759e+00
4.049631787951466322e+03 3.162277660168379523e+00
4.314789951722894330e+03 5.623413251903491172e+00
4.617807337299800565e+03 1.000000000000000000e+01
4.972352529804522419e+03 1.778279410038922848e+01
5.396519247803360486e+03 3.162277660168379256e+01
5.917212628584571576e+03 5.623413251903490817e+01
6.577326063746168984e+03 1.000000000000000000e+02
7.448283031264950296e+03 1.778279410038922776e+02
8.654844498189808291e+03 3.162277660168379612e+02
